timestamp,window,sample,ir_raw,red_raw,true_hr,true_spo2,mcu_time
2025-12-08T02:36:18.194960,0,0,0.0,0.0,24.0,24.0,80270507.0
2025-12-08T02:36:18.196501,0,1,0.0,0.0,24.0,24.0,80271484.0
2025-12-08T02:36:18.196657,0,2,0.0,0.0,24.0,24.0,80271484.0
2025-12-08T02:36:18.197160,0,3,0.0,0.0,24.0,24.0,80271484.0
2025-12-08T02:36:18.197160,0,4,0.0,0.0,24.0,24.0,80271484.0
2025-12-08T02:36:18.198358,0,5,0.0,0.0,24.0,24.0,80272460.0
2025-12-08T02:36:18.198358,0,6,0.0,0.0,24.0,24.0,80272460.0
2025-12-08T02:36:18.198871,0,7,0.0,0.0,24.0,24.0,80272460.0
2025-12-08T02:36:18.199967,0,8,0.0,0.0,24.0,24.0,80272460.0
2025-12-08T02:36:18.201180,0,9,0.0,0.0,24.0,24.0,80273437.0
2025-12-08T02:36:18.202212,0,10,0.0,0.0,24.0,24.0,80273437.0
2025-12-08T02:36:18.202212,0,11,0.0,0.0,24.0,24.0,80273437.0
2025-12-08T02:36:18.203224,0,12,0.0,0.0,24.0,24.0,80273437.0
2025-12-08T02:36:18.203854,0,13,0.0,0.0,24.0,24.0,80274414.0
2025-12-08T02:36:18.203854,0,14,0.0,0.0,24.0,24.0,80274414.0
2025-12-08T02:36:18.203854,0,15,0.0,0.0,24.0,24.0,80274414.0
2025-12-08T02:36:18.204895,0,16,0.0,0.0,24.0,24.0,80274414.0
2025-12-08T02:36:18.204895,0,17,0.0,0.0,24.0,24.0,80274414.0
2025-12-08T02:36:18.204895,0,18,0.0,0.0,24.0,24.0,80275390.0
2025-12-08T02:36:18.206012,0,19,0.0,0.0,24.0,24.0,80275390.0
2025-12-08T02:36:18.206012,0,20,0.0,0.0,24.0,24.0,80275390.0
2025-12-08T02:36:18.206012,0,21,0.0,0.0,24.0,24.0,80275390.0
2025-12-08T02:36:18.207489,0,22,0.0,0.0,24.0,24.0,80275390.0
2025-12-08T02:36:18.207489,0,23,0.0,0.0,24.0,24.0,80276367.0
2025-12-08T02:36:18.208487,0,24,0.0,0.0,24.0,24.0,80276367.0
2025-12-08T02:36:18.208487,0,25,0.0,0.0,24.0,24.0,80276367.0
2025-12-08T02:36:18.208487,0,26,0.0,0.0,24.0,24.0,80276367.0
2025-12-08T02:36:18.209487,0,27,0.0,0.0,24.0,24.0,80277343.0
2025-12-08T02:36:18.209487,0,28,0.0,0.0,24.0,24.0,80277343.0
2025-12-08T02:36:18.209487,0,29,0.0,0.0,24.0,24.0,80277343.0
2025-12-08T02:36:18.210487,0,30,0.0,0.0,24.0,24.0,80277343.0
2025-12-08T02:36:18.210487,0,31,0.0,0.0,24.0,24.0,80277343.0
2025-12-08T02:36:18.211487,0,32,0.0,0.0,24.0,24.0,80278320.0
2025-12-08T02:36:18.211487,0,33,0.0,0.0,24.0,24.0,80278320.0
2025-12-08T02:36:18.211487,0,34,0.0,0.0,24.0,24.0,80278320.0
2025-12-08T02:36:18.212496,0,35,0.0,0.0,24.0,24.0,80278320.0
2025-12-08T02:36:18.213557,0,36,0.0,0.0,24.0,24.0,80279296.0
2025-12-08T02:36:18.214506,0,37,0.0,0.0,24.0,24.0,80279296.0
2025-12-08T02:36:18.214506,0,38,0.0,0.0,24.0,24.0,80279296.0
2025-12-08T02:36:18.215490,0,39,0.0,0.0,24.0,24.0,80279296.0
2025-12-08T02:36:18.216520,0,40,0.0,0.0,24.0,24.0,80280273.0
2025-12-08T02:36:18.216520,0,41,0.0,0.0,24.0,24.0,80280273.0
2025-12-08T02:36:18.217495,0,42,0.0,0.0,24.0,24.0,80280273.0
2025-12-08T02:36:18.217495,0,43,0.0,0.0,24.0,24.0,80280273.0
2025-12-08T02:36:18.218487,0,44,0.0,0.0,24.0,24.0,80281250.0
2025-12-08T02:36:18.218487,0,45,0.0,0.0,24.0,24.0,80281250.0
2025-12-08T02:36:18.219485,0,46,0.0,0.0,24.0,24.0,80281250.0
2025-12-08T02:36:18.219485,0,47,0.0,0.0,24.0,24.0,80281250.0
2025-12-08T02:36:18.219485,0,48,0.0,0.0,24.0,24.0,80282226.0
2025-12-08T02:36:18.220485,0,49,0.0,0.0,24.0,24.0,80282226.0
2025-12-08T02:36:18.220485,0,50,0.0,0.0,24.0,24.0,80282226.0
2025-12-08T02:36:18.220485,0,51,0.0,0.0,24.0,24.0,80282226.0
2025-12-08T02:36:18.221836,0,52,0.0,0.0,24.0,24.0,80282226.0
2025-12-08T02:36:18.222297,0,53,0.0,0.0,24.0,24.0,80283203.0
2025-12-08T02:36:18.223413,0,54,0.0,0.0,24.0,24.0,80283203.0
2025-12-08T02:36:18.224403,0,55,0.0,0.0,24.0,24.0,80283203.0
2025-12-08T02:36:18.224403,0,56,0.0,0.0,24.0,24.0,80284179.0
2025-12-08T02:36:18.225420,0,57,0.0,0.0,24.0,24.0,80284179.0
2025-12-08T02:36:18.226399,0,58,0.0,0.0,24.0,24.0,80284179.0
2025-12-08T02:36:18.226399,0,59,0.0,0.0,24.0,24.0,80284179.0
2025-12-08T02:36:18.227338,0,60,0.0,0.0,24.0,24.0,80284179.0
2025-12-08T02:36:18.227338,0,61,0.0,0.0,24.0,24.0,80285156.0
2025-12-08T02:36:18.227338,0,62,0.0,0.0,24.0,24.0,80285156.0
2025-12-08T02:36:18.228337,0,63,0.0,0.0,24.0,24.0,80285156.0
2025-12-08T02:36:18.228337,0,64,0.0,0.0,24.0,24.0,80285156.0
2025-12-08T02:36:18.228337,0,65,0.0,0.0,24.0,24.0,80285156.0
2025-12-08T02:36:18.229337,0,66,0.0,0.0,24.0,24.0,80286132.0
2025-12-08T02:36:18.230732,0,67,0.0,0.0,24.0,24.0,80286132.0
2025-12-08T02:36:18.231850,0,68,0.0,0.0,24.0,24.0,80286132.0
2025-12-08T02:36:18.232849,0,69,0.0,0.0,24.0,24.0,80286132.0
2025-12-08T02:36:18.232849,0,70,0.0,0.0,24.0,24.0,80287109.0
2025-12-08T02:36:18.233866,0,71,0.0,0.0,24.0,24.0,80287109.0
2025-12-08T02:36:18.233866,0,72,0.0,0.0,24.0,24.0,80287109.0
2025-12-08T02:36:18.234845,0,73,0.0,0.0,24.0,24.0,80287109.0
2025-12-08T02:36:18.234845,0,74,0.0,0.0,24.0,24.0,80288085.0
2025-12-08T02:36:18.234845,0,75,0.0,0.0,24.0,24.0,80288085.0
2025-12-08T02:36:18.235844,0,76,0.0,0.0,24.0,24.0,80288085.0
2025-12-08T02:36:18.235844,0,77,0.0,0.0,24.0,24.0,80288085.0
2025-12-08T02:36:18.235844,0,78,0.0,0.0,24.0,24.0,80288085.0
2025-12-08T02:36:18.237002,0,79,0.0,0.0,24.0,24.0,80289062.0
2025-12-08T02:36:18.237002,0,80,0.0,0.0,24.0,24.0,80289062.0
2025-12-08T02:36:18.238121,0,81,0.0,0.0,24.0,24.0,80289062.0
2025-12-08T02:36:18.238121,0,82,0.0,0.0,24.0,24.0,80289062.0
2025-12-08T02:36:18.238121,0,83,0.0,0.0,24.0,24.0,80290039.0
2025-12-08T02:36:18.239126,0,84,0.0,0.0,24.0,24.0,80290039.0
2025-12-08T02:36:18.239126,0,85,0.0,0.0,24.0,24.0,80290039.0
2025-12-08T02:36:18.240130,0,86,0.0,0.0,24.0,24.0,80290039.0
2025-12-08T02:36:18.240130,0,87,0.0,0.0,24.0,24.0,80291015.0
2025-12-08T02:36:18.240130,0,88,0.0,0.0,24.0,24.0,80291015.0
2025-12-08T02:36:18.241150,0,89,0.0,0.0,24.0,24.0,80291015.0
2025-12-08T02:36:18.241150,0,90,0.0,0.0,24.0,24.0,80291015.0
2025-12-08T02:36:18.241150,0,91,0.0,0.0,24.0,24.0,80291992.0
2025-12-08T02:36:18.242142,0,92,0.0,0.0,24.0,24.0,80291992.0
2025-12-08T02:36:18.242142,0,93,0.0,0.0,24.0,24.0,80291992.0
2025-12-08T02:36:18.243146,0,94,0.0,0.0,24.0,24.0,80291992.0
2025-12-08T02:36:18.243146,0,95,0.0,0.0,24.0,24.0,80291992.0
2025-12-08T02:36:18.243146,0,96,0.0,0.0,24.0,24.0,80292968.0
2025-12-08T02:36:18.244145,0,97,0.0,0.0,24.0,24.0,80292968.0
2025-12-08T02:36:18.244145,0,98,0.0,0.0,24.0,24.0,80292968.0
2025-12-08T02:36:18.244145,0,99,0.0,0.0,24.0,24.0,80292968.0
2025-12-08T02:36:18.245143,0,100,0.0,0.0,24.0,24.0,80293945.0
2025-12-08T02:36:18.245143,0,101,0.0,0.0,24.0,24.0,80293945.0
2025-12-08T02:36:18.246082,0,102,0.0,0.0,24.0,24.0,80293945.0
2025-12-08T02:36:18.247138,0,103,0.0,0.0,24.0,24.0,80293945.0
2025-12-08T02:36:18.248086,0,104,0.0,0.0,24.0,24.0,80294921.0
2025-12-08T02:36:18.248086,0,105,0.0,0.0,24.0,24.0,80294921.0
2025-12-08T02:36:18.249088,0,106,0.0,0.0,24.0,24.0,80294921.0
2025-12-08T02:36:18.249088,0,107,0.0,0.0,24.0,24.0,80294921.0
2025-12-08T02:36:18.250136,0,108,0.0,0.0,24.0,24.0,80294921.0
2025-12-08T02:36:18.250136,0,109,0.0,0.0,24.0,24.0,80294921.0
2025-12-08T02:36:18.250136,0,110,0.0,0.0,24.0,24.0,80295898.0
2025-12-08T02:36:18.251143,0,111,0.0,0.0,24.0,24.0,80295898.0
2025-12-08T02:36:18.251143,0,112,0.0,0.0,24.0,24.0,80295898.0
2025-12-08T02:36:18.252146,0,113,0.0,0.0,24.0,24.0,80296875.0
2025-12-08T02:36:18.252146,0,114,0.0,0.0,24.0,24.0,80296875.0
2025-12-08T02:36:18.252146,0,115,0.0,0.0,24.0,24.0,80296875.0
2025-12-08T02:36:18.253144,0,116,0.0,0.0,24.0,24.0,80296875.0
2025-12-08T02:36:18.253144,0,117,0.0,0.0,24.0,24.0,80296875.0
2025-12-08T02:36:18.254146,0,118,0.0,0.0,24.0,24.0,80297851.0
2025-12-08T02:36:18.254146,0,119,0.0,0.0,24.0,24.0,80297851.0
2025-12-08T02:36:18.254146,0,120,0.0,0.0,24.0,24.0,80297851.0
2025-12-08T02:36:18.255146,0,121,0.0,0.0,24.0,24.0,80297851.0
2025-12-08T02:36:18.255146,0,122,0.0,0.0,24.0,24.0,80298828.0
2025-12-08T02:36:18.255146,0,123,0.0,0.0,24.0,24.0,80298828.0
2025-12-08T02:36:18.256146,0,124,0.0,0.0,24.0,24.0,80298828.0
2025-12-08T02:36:18.256146,0,125,0.0,0.0,24.0,24.0,80298828.0
2025-12-08T02:36:18.257128,0,126,0.0,0.0,24.0,24.0,80299804.0
2025-12-08T02:36:18.257128,0,127,0.0,0.0,24.0,24.0,80299804.0
2025-12-08T02:36:18.257128,0,128,0.0,0.0,24.0,24.0,80299804.0
2025-12-08T02:36:18.258131,0,129,0.0,0.0,24.0,24.0,80299804.0
2025-12-08T02:36:18.258131,0,130,0.0,0.0,24.0,24.0,80299804.0
2025-12-08T02:36:18.259086,0,131,0.0,0.0,24.0,24.0,80300781.0
2025-12-08T02:36:18.259086,0,132,0.0,0.0,24.0,24.0,80300781.0
2025-12-08T02:36:18.260129,0,133,0.0,0.0,24.0,24.0,80300781.0
2025-12-08T02:36:18.260129,0,134,0.0,0.0,24.0,24.0,80301757.0
2025-12-08T02:36:18.261135,0,135,0.0,0.0,24.0,24.0,80301757.0
2025-12-08T02:36:18.261135,0,136,0.0,0.0,24.0,24.0,80301757.0
2025-12-08T02:36:18.261135,0,137,0.0,0.0,24.0,24.0,80301757.0
2025-12-08T02:36:18.262136,0,138,0.0,0.0,24.0,24.0,80301757.0
2025-12-08T02:36:18.262136,0,139,0.0,0.0,24.0,24.0,80302734.0
2025-12-08T02:36:18.263120,0,140,0.0,0.0,24.0,24.0,80302734.0
2025-12-08T02:36:18.263120,0,141,0.0,0.0,24.0,24.0,80302734.0
2025-12-08T02:36:18.264084,0,142,0.0,0.0,24.0,24.0,80302734.0
2025-12-08T02:36:18.264084,0,143,0.0,0.0,24.0,24.0,80303710.0
2025-12-08T02:36:18.265125,0,144,0.0,0.0,24.0,24.0,80303710.0
2025-12-08T02:36:18.265125,0,145,0.0,0.0,24.0,24.0,80303710.0
2025-12-08T02:36:18.265125,0,146,0.0,0.0,24.0,24.0,80303710.0
2025-12-08T02:36:18.266125,0,147,0.0,0.0,24.0,24.0,80303710.0
2025-12-08T02:36:18.266125,0,148,0.0,0.0,24.0,24.0,80304687.0
2025-12-08T02:36:18.266125,0,149,0.0,0.0,24.0,24.0,80304687.0
2025-12-08T02:36:18.267126,0,150,0.0,0.0,24.0,24.0,80304687.0
2025-12-08T02:36:18.267126,0,151,0.0,0.0,24.0,24.0,80304687.0
2025-12-08T02:36:18.268129,0,152,0.0,0.0,24.0,24.0,80305664.0
2025-12-08T02:36:18.268129,0,153,0.0,0.0,24.0,24.0,80305664.0
2025-12-08T02:36:18.268129,0,154,0.0,0.0,24.0,24.0,80305664.0
2025-12-08T02:36:18.269126,0,155,0.0,0.0,24.0,24.0,80305664.0
2025-12-08T02:36:18.269126,0,156,0.0,0.0,24.0,24.0,80306640.0
2025-12-08T02:36:18.269126,0,157,0.0,0.0,24.0,24.0,80306640.0
2025-12-08T02:36:18.270139,0,158,0.0,0.0,24.0,24.0,80306640.0
2025-12-08T02:36:18.270139,0,159,0.0,0.0,24.0,24.0,80306640.0
2025-12-08T02:36:18.271125,0,160,0.0,0.0,24.0,24.0,80307617.0
2025-12-08T02:36:18.271125,0,161,0.0,0.0,24.0,24.0,80307617.0
2025-12-08T02:36:18.271125,0,162,0.0,0.0,24.0,24.0,80307617.0
2025-12-08T02:36:18.272127,0,163,0.0,0.0,24.0,24.0,80307617.0
2025-12-08T02:36:18.272127,0,164,0.0,0.0,24.0,24.0,80308593.0
2025-12-08T02:36:18.272127,0,165,0.0,0.0,24.0,24.0,80308593.0
2025-12-08T02:36:18.273135,0,166,0.0,0.0,24.0,24.0,80308593.0
2025-12-08T02:36:18.273135,0,167,0.0,0.0,24.0,24.0,80308593.0
2025-12-08T02:36:18.274143,0,168,0.0,0.0,24.0,24.0,80308593.0
2025-12-08T02:36:18.274143,0,169,0.0,0.0,24.0,24.0,80309570.0
2025-12-08T02:36:18.274143,0,170,0.0,0.0,24.0,24.0,80309570.0
2025-12-08T02:36:18.275130,0,171,0.0,0.0,24.0,24.0,80309570.0
2025-12-08T02:36:18.275130,0,172,0.0,0.0,24.0,24.0,80309570.0
2025-12-08T02:36:18.276137,0,173,0.0,0.0,24.0,24.0,80310546.0
2025-12-08T02:36:18.276137,0,174,0.0,0.0,24.0,24.0,80310546.0
2025-12-08T02:36:18.276137,0,175,0.0,0.0,24.0,24.0,80310546.0
2025-12-08T02:36:18.277130,0,176,0.0,0.0,24.0,24.0,80310546.0
2025-12-08T02:36:18.277130,0,177,0.0,0.0,24.0,24.0,80310546.0
2025-12-08T02:36:18.278134,0,178,0.0,0.0,24.0,24.0,80311523.0
2025-12-08T02:36:18.278134,0,179,0.0,0.0,24.0,24.0,80311523.0
2025-12-08T02:36:18.278134,0,180,0.0,0.0,24.0,24.0,80311523.0
2025-12-08T02:36:18.279129,0,181,0.0,0.0,24.0,24.0,80311523.0
2025-12-08T02:36:18.279129,0,182,0.0,0.0,24.0,24.0,80312500.0
2025-12-08T02:36:18.280084,0,183,0.0,0.0,24.0,24.0,80312500.0
2025-12-08T02:36:18.280084,0,184,0.0,0.0,24.0,24.0,80312500.0
2025-12-08T02:36:18.281131,0,185,0.0,0.0,24.0,24.0,80312500.0
2025-12-08T02:36:18.281131,0,186,0.0,0.0,24.0,24.0,80313476.0
2025-12-08T02:36:18.281131,0,187,0.0,0.0,24.0,24.0,80313476.0
2025-12-08T02:36:18.282136,0,188,0.0,0.0,24.0,24.0,80313476.0
2025-12-08T02:36:18.282136,0,189,0.0,0.0,24.0,24.0,80313476.0
2025-12-08T02:36:18.283201,0,190,0.0,0.0,24.0,24.0,80313476.0
2025-12-08T02:36:18.283201,0,191,0.0,0.0,24.0,24.0,80314453.0
2025-12-08T02:36:18.283201,0,192,0.0,0.0,24.0,24.0,80314453.0
2025-12-08T02:36:18.284458,0,193,0.0,0.0,24.0,24.0,80314453.0
2025-12-08T02:36:18.284458,0,194,0.0,0.0,24.0,24.0,80314453.0
2025-12-08T02:36:18.284458,0,195,0.0,0.0,24.0,24.0,80315429.0
2025-12-08T02:36:18.285421,0,196,0.0,0.0,24.0,24.0,80315429.0
2025-12-08T02:36:18.285421,0,197,0.0,0.0,24.0,24.0,80315429.0
2025-12-08T02:36:18.286420,0,198,0.0,0.0,24.0,24.0,80315429.0
2025-12-08T02:36:18.286420,0,199,0.0,0.0,24.0,24.0,80316406.0
2025-12-08T02:36:18.286420,0,200,0.0,0.0,24.0,24.0,80316406.0
2025-12-08T02:36:18.287420,0,201,0.0,0.0,24.0,24.0,80316406.0
2025-12-08T02:36:18.287420,0,202,0.0,0.0,24.0,24.0,80316406.0
2025-12-08T02:36:18.287420,0,203,0.0,0.0,24.0,24.0,80316406.0
2025-12-08T02:36:18.288422,0,204,0.0,0.0,24.0,24.0,80317382.0
2025-12-08T02:36:18.288422,0,205,0.0,0.0,24.0,24.0,80317382.0
2025-12-08T02:36:18.289421,0,206,0.0,0.0,24.0,24.0,80317382.0
2025-12-08T02:36:18.289421,0,207,0.0,0.0,24.0,24.0,80317382.0
2025-12-08T02:36:18.289421,0,208,0.0,0.0,24.0,24.0,80318359.0
2025-12-08T02:36:18.290421,0,209,0.0,0.0,24.0,24.0,80318359.0
2025-12-08T02:36:18.290421,0,210,0.0,0.0,24.0,24.0,80318359.0
2025-12-08T02:36:18.291421,0,211,0.0,0.0,24.0,24.0,80318359.0
2025-12-08T02:36:18.291421,0,212,0.0,0.0,24.0,24.0,80319335.0
2025-12-08T02:36:18.291421,0,213,0.0,0.0,24.0,24.0,80319335.0
2025-12-08T02:36:18.292420,0,214,0.0,0.0,24.0,24.0,80319335.0
2025-12-08T02:36:18.292420,0,215,0.0,0.0,24.0,24.0,80319335.0
2025-12-08T02:36:18.292420,0,216,0.0,0.0,24.0,24.0,80319335.0
2025-12-08T02:36:18.293420,0,217,0.0,0.0,24.0,24.0,80320312.0
2025-12-08T02:36:18.293420,0,218,0.0,0.0,24.0,24.0,80320312.0
2025-12-08T02:36:18.294422,0,219,0.0,0.0,24.0,24.0,80320312.0
2025-12-08T02:36:18.294422,0,220,0.0,0.0,24.0,24.0,80320312.0
2025-12-08T02:36:18.295424,0,221,0.0,0.0,24.0,24.0,80321289.0
2025-12-08T02:36:18.295424,0,222,0.0,0.0,24.0,24.0,80321289.0
2025-12-08T02:36:18.296423,0,223,0.0,0.0,24.0,24.0,80321289.0
2025-12-08T02:36:18.296423,0,224,0.0,0.0,24.0,24.0,80321289.0
2025-12-08T02:36:18.297422,0,225,0.0,0.0,24.0,24.0,80322265.0
2025-12-08T02:36:18.297422,0,226,0.0,0.0,24.0,24.0,80322265.0
2025-12-08T02:36:18.297422,0,227,0.0,0.0,24.0,24.0,80322265.0
2025-12-08T02:36:18.298421,0,228,0.0,0.0,24.0,24.0,80322265.0
2025-12-08T02:36:18.298421,0,229,0.0,0.0,24.0,24.0,80322265.0
2025-12-08T02:36:18.299423,0,230,0.0,0.0,24.0,24.0,80323242.0
2025-12-08T02:36:18.299423,0,231,0.0,0.0,24.0,24.0,80323242.0
2025-12-08T02:36:18.300421,0,232,0.0,0.0,24.0,24.0,80323242.0
2025-12-08T02:36:18.300421,0,233,0.0,0.0,24.0,24.0,80323242.0
2025-12-08T02:36:18.300421,0,234,0.0,0.0,24.0,24.0,80324218.0
2025-12-08T02:36:18.301420,0,235,0.0,0.0,24.0,24.0,80324218.0
2025-12-08T02:36:18.301420,0,236,0.0,0.0,24.0,24.0,80324218.0
2025-12-08T02:36:18.301420,0,237,0.0,0.0,24.0,24.0,80324218.0
2025-12-08T02:36:18.302420,0,238,0.0,0.0,24.0,24.0,80324218.0
2025-12-08T02:36:18.302420,0,239,0.0,0.0,24.0,24.0,80325195.0
2025-12-08T02:36:18.303424,0,240,0.0,0.0,24.0,24.0,80325195.0
2025-12-08T02:36:18.303424,0,241,0.0,0.0,24.0,24.0,80325195.0
2025-12-08T02:36:18.303424,0,242,0.0,0.0,24.0,24.0,80325195.0
2025-12-08T02:36:18.304421,0,243,0.0,0.0,24.0,24.0,80326171.0
2025-12-08T02:36:18.304421,0,244,0.0,0.0,24.0,24.0,80326171.0
2025-12-08T02:36:18.305421,0,245,0.0,0.0,24.0,24.0,80326171.0
2025-12-08T02:36:18.305421,0,246,0.0,0.0,24.0,24.0,80326171.0
2025-12-08T02:36:18.305421,0,247,0.0,0.0,24.0,24.0,80327148.0
2025-12-08T02:36:18.306420,0,248,0.0,0.0,24.0,24.0,80327148.0
2025-12-08T02:36:18.306420,0,249,0.0,0.0,24.0,24.0,80327148.0
2025-12-08T02:36:18.307421,0,250,0.0,0.0,24.0,24.0,80327148.0
2025-12-08T02:36:18.307421,0,251,0.0,0.0,24.0,24.0,80327148.0
2025-12-08T02:36:18.307421,0,252,0.0,0.0,24.0,24.0,80328125.0
2025-12-08T02:36:18.308427,0,253,0.0,0.0,24.0,24.0,80328125.0
2025-12-08T02:36:18.308427,0,254,0.0,0.0,24.0,24.0,80328125.0
2025-12-08T02:36:18.309420,0,255,0.0,0.0,24.0,24.0,80328125.0
2025-12-08T02:36:18.309420,0,256,0.0,0.0,24.0,24.0,80328125.0
2025-12-08T02:36:18.309420,0,257,0.0,0.0,24.0,24.0,80329101.0
2025-12-08T02:36:18.310421,0,258,0.0,0.0,24.0,24.0,80329101.0
2025-12-08T02:36:18.310421,0,259,0.0,0.0,24.0,24.0,80329101.0
2025-12-08T02:36:18.311421,0,260,0.0,0.0,24.0,24.0,80329101.0
2025-12-08T02:36:18.311421,0,261,0.0,0.0,24.0,24.0,80330078.0
2025-12-08T02:36:18.312421,0,262,0.0,0.0,24.0,24.0,80330078.0
2025-12-08T02:36:18.312421,0,263,0.0,0.0,24.0,24.0,80330078.0
2025-12-08T02:36:18.313415,0,264,0.0,0.0,24.0,24.0,80330078.0
2025-12-08T02:36:18.313415,0,265,0.0,0.0,24.0,24.0,80331054.0
2025-12-08T02:36:18.313415,0,266,0.0,0.0,24.0,24.0,80331054.0
2025-12-08T02:36:18.314419,0,267,0.0,0.0,24.0,24.0,80331054.0
2025-12-08T02:36:18.314419,0,268,0.0,0.0,24.0,24.0,80331054.0
2025-12-08T02:36:18.315420,0,269,0.0,0.0,24.0,24.0,80331054.0
2025-12-08T02:36:18.315420,0,270,0.0,0.0,24.0,24.0,80332031.0
2025-12-08T02:36:18.315420,0,271,0.0,0.0,24.0,24.0,80332031.0
2025-12-08T02:36:18.316419,0,272,0.0,0.0,24.0,24.0,80332031.0
2025-12-08T02:36:18.316419,0,273,0.0,0.0,24.0,24.0,80332031.0
2025-12-08T02:36:18.317418,0,274,0.0,0.0,24.0,24.0,80333007.0
2025-12-08T02:36:18.317418,0,275,0.0,0.0,24.0,24.0,80333007.0
2025-12-08T02:36:18.317418,0,276,0.0,0.0,24.0,24.0,80333007.0
2025-12-08T02:36:18.318418,0,277,0.0,0.0,24.0,24.0,80333007.0
2025-12-08T02:36:18.318418,0,278,0.0,0.0,24.0,24.0,80333984.0
2025-12-08T02:36:18.319417,0,279,0.0,0.0,24.0,24.0,80333984.0
2025-12-08T02:36:18.319417,0,280,0.0,0.0,24.0,24.0,80333984.0
2025-12-08T02:36:18.319417,0,281,0.0,0.0,24.0,24.0,80333984.0
2025-12-08T02:36:18.320417,0,282,0.0,0.0,24.0,24.0,80333984.0
2025-12-08T02:36:18.320417,0,283,0.0,0.0,24.0,24.0,80334960.0
2025-12-08T02:36:18.321417,0,284,0.0,0.0,24.0,24.0,80334960.0
2025-12-08T02:36:18.321528,0,285,0.0,0.0,24.0,24.0,80334960.0
2025-12-08T02:36:18.321528,0,286,0.0,0.0,24.0,24.0,80334960.0
2025-12-08T02:36:18.322574,0,287,0.0,0.0,24.0,24.0,80335937.0
2025-12-08T02:36:18.322574,0,288,0.0,0.0,24.0,24.0,80335937.0
2025-12-08T02:36:18.322574,0,289,0.0,0.0,24.0,24.0,80335937.0
2025-12-08T02:36:18.323574,0,290,0.0,0.0,24.0,24.0,80335937.0
2025-12-08T02:36:18.323574,0,291,0.0,0.0,24.0,24.0,80335937.0
2025-12-08T02:36:18.324584,0,292,0.0,0.0,24.0,24.0,80336914.0
2025-12-08T02:36:18.324584,0,293,0.0,0.0,24.0,24.0,80336914.0
2025-12-08T02:36:18.324584,0,294,0.0,0.0,24.0,24.0,80336914.0
2025-12-08T02:36:18.325587,0,295,0.0,0.0,24.0,24.0,80336914.0
2025-12-08T02:36:18.325587,0,296,0.0,0.0,24.0,24.0,80337890.0
2025-12-08T02:36:18.326573,0,297,0.0,0.0,24.0,24.0,80337890.0
2025-12-08T02:36:18.326573,0,298,0.0,0.0,24.0,24.0,80337890.0
2025-12-08T02:36:18.326573,0,299,0.0,0.0,24.0,24.0,80337890.0
2025-12-08T02:36:18.327585,0,300,0.0,0.0,24.0,24.0,80337890.0
2025-12-08T02:36:18.327585,0,301,0.0,0.0,24.0,24.0,80338867.0
2025-12-08T02:36:18.328578,0,302,0.0,0.0,24.0,24.0,80338867.0
2025-12-08T02:36:18.328578,0,303,0.0,0.0,24.0,24.0,80338867.0
2025-12-08T02:36:18.328578,0,304,0.0,0.0,24.0,24.0,80338867.0
2025-12-08T02:36:18.329530,0,305,0.0,0.0,24.0,24.0,80338867.0
2025-12-08T02:36:18.329530,0,306,0.0,0.0,24.0,24.0,80339843.0
2025-12-08T02:36:18.330679,0,307,0.0,0.0,24.0,24.0,80339843.0
2025-12-08T02:36:18.330679,0,308,0.0,0.0,24.0,24.0,80339843.0
2025-12-08T02:36:18.330679,0,309,0.0,0.0,24.0,24.0,80339843.0
2025-12-08T02:36:18.331883,0,310,0.0,0.0,24.0,24.0,80340820.0
2025-12-08T02:36:18.331883,0,311,0.0,0.0,24.0,24.0,80340820.0
2025-12-08T02:36:18.332876,0,312,0.0,0.0,24.0,24.0,80340820.0
2025-12-08T02:36:18.332876,0,313,0.0,0.0,24.0,24.0,80340820.0
2025-12-08T02:36:18.332876,0,314,0.0,0.0,24.0,24.0,80340820.0
2025-12-08T02:36:18.333887,0,315,0.0,0.0,24.0,24.0,80341796.0
2025-12-08T02:36:18.333887,0,316,0.0,0.0,24.0,24.0,80341796.0
2025-12-08T02:36:18.333887,0,317,0.0,0.0,24.0,24.0,80341796.0
2025-12-08T02:36:18.334877,0,318,0.0,0.0,24.0,24.0,80341796.0
2025-12-08T02:36:18.334877,0,319,0.0,0.0,24.0,24.0,80342773.0
2025-12-08T02:36:18.335875,0,320,0.0,0.0,24.0,24.0,80342773.0
2025-12-08T02:36:18.335875,0,321,0.0,0.0,24.0,24.0,80342773.0
2025-12-08T02:36:18.335875,0,322,0.0,0.0,24.0,24.0,80342773.0
2025-12-08T02:36:18.336887,0,323,0.0,0.0,24.0,24.0,80343750.0
2025-12-08T02:36:18.336887,0,324,0.0,0.0,24.0,24.0,80343750.0
2025-12-08T02:36:18.337964,0,325,0.0,0.0,24.0,24.0,80343750.0
2025-12-08T02:36:18.337964,0,326,0.0,0.0,24.0,24.0,80344726.0
2025-12-08T02:36:18.337964,0,327,0.0,0.0,24.0,24.0,80344726.0
2025-12-08T02:36:18.339017,0,328,0.0,0.0,24.0,24.0,80344726.0
2025-12-08T02:36:18.339017,0,329,0.0,0.0,24.0,24.0,80344726.0
2025-12-08T02:36:18.340018,0,330,0.0,0.0,24.0,24.0,80344726.0
2025-12-08T02:36:18.340018,0,331,0.0,0.0,24.0,24.0,80345703.0
2025-12-08T02:36:18.340018,0,332,0.0,0.0,24.0,24.0,80345703.0
2025-12-08T02:36:18.341012,0,333,0.0,0.0,24.0,24.0,80345703.0
2025-12-08T02:36:18.341012,0,334,0.0,0.0,24.0,24.0,80345703.0
2025-12-08T02:36:18.342017,0,335,0.0,0.0,24.0,24.0,80346679.0
2025-12-08T02:36:18.342017,0,336,0.0,0.0,24.0,24.0,80346679.0
2025-12-08T02:36:18.342017,0,337,0.0,0.0,24.0,24.0,80346679.0
2025-12-08T02:36:18.343021,0,338,0.0,0.0,24.0,24.0,80346679.0
2025-12-08T02:36:18.343021,0,339,0.0,0.0,24.0,24.0,80347656.0
2025-12-08T02:36:18.344011,0,340,0.0,0.0,24.0,24.0,80347656.0
2025-12-08T02:36:18.344011,0,341,0.0,0.0,24.0,24.0,80347656.0
2025-12-08T02:36:18.344011,0,342,0.0,0.0,24.0,24.0,80347656.0
2025-12-08T02:36:18.345018,0,343,0.0,0.0,24.0,24.0,80347656.0
2025-12-08T02:36:18.345018,0,344,0.0,0.0,24.0,24.0,80348632.0
2025-12-08T02:36:18.346024,0,345,0.0,0.0,24.0,24.0,80348632.0
2025-12-08T02:36:18.346150,0,346,0.0,0.0,24.0,24.0,80348632.0
2025-12-08T02:36:18.346150,0,347,0.0,0.0,24.0,24.0,80348632.0
2025-12-08T02:36:18.347338,0,348,0.0,0.0,24.0,24.0,80349609.0
2025-12-08T02:36:18.347338,0,349,0.0,0.0,24.0,24.0,80349609.0
2025-12-08T02:36:18.347338,0,350,0.0,0.0,24.0,24.0,80349609.0
2025-12-08T02:36:18.348336,0,351,0.0,0.0,24.0,24.0,80349609.0
2025-12-08T02:36:18.348336,0,352,0.0,0.0,24.0,24.0,80349609.0
2025-12-08T02:36:18.349337,0,353,0.0,0.0,24.0,24.0,80350585.0
2025-12-08T02:36:18.349337,0,354,0.0,0.0,24.0,24.0,80350585.0
2025-12-08T02:36:18.349337,0,355,0.0,0.0,24.0,24.0,80350585.0
2025-12-08T02:36:18.350336,0,356,0.0,0.0,24.0,24.0,80350585.0
2025-12-08T02:36:18.350336,0,357,0.0,0.0,24.0,24.0,80351562.0
2025-12-08T02:36:18.351336,0,358,0.0,0.0,24.0,24.0,80351562.0
2025-12-08T02:36:18.351336,0,359,0.0,0.0,24.0,24.0,80351562.0
2025-12-08T02:36:18.351336,0,360,0.0,0.0,24.0,24.0,80351562.0
2025-12-08T02:36:18.352336,0,361,0.0,0.0,24.0,24.0,80352539.0
2025-12-08T02:36:18.352336,0,362,0.0,0.0,24.0,24.0,80352539.0
2025-12-08T02:36:18.353336,0,363,0.0,0.0,24.0,24.0,80352539.0
2025-12-08T02:36:18.353336,0,364,0.0,0.0,24.0,24.0,80352539.0
2025-12-08T02:36:18.353336,0,365,0.0,0.0,24.0,24.0,80352539.0
2025-12-08T02:36:18.354550,0,366,0.0,0.0,24.0,24.0,80353515.0
2025-12-08T02:36:18.354550,0,367,0.0,0.0,24.0,24.0,80353515.0
2025-12-08T02:36:18.354550,0,368,0.0,0.0,24.0,24.0,80353515.0
2025-12-08T02:36:18.355555,0,369,0.0,0.0,24.0,24.0,80353515.0
2025-12-08T02:36:18.355555,0,370,0.0,0.0,24.0,24.0,80354492.0
2025-12-08T02:36:18.356553,0,371,0.0,0.0,24.0,24.0,80354492.0
2025-12-08T02:36:18.356553,0,372,0.0,0.0,24.0,24.0,80354492.0
2025-12-08T02:36:18.356553,0,373,0.0,0.0,24.0,24.0,80354492.0
2025-12-08T02:36:18.357553,0,374,0.0,0.0,24.0,24.0,80354492.0
2025-12-08T02:36:18.357553,0,375,0.0,0.0,24.0,24.0,80355468.0
2025-12-08T02:36:18.358553,0,376,0.0,0.0,24.0,24.0,80355468.0
2025-12-08T02:36:18.358553,0,377,0.0,0.0,24.0,24.0,80355468.0
2025-12-08T02:36:18.358553,0,378,0.0,0.0,24.0,24.0,80355468.0
2025-12-08T02:36:18.359553,0,379,0.0,0.0,24.0,24.0,80356445.0
2025-12-08T02:36:18.359553,0,380,0.0,0.0,24.0,24.0,80356445.0
2025-12-08T02:36:18.360553,0,381,0.0,0.0,24.0,24.0,80356445.0
2025-12-08T02:36:18.360553,0,382,0.0,0.0,24.0,24.0,80357421.0
2025-12-08T02:36:18.360553,0,383,0.0,0.0,24.0,24.0,80357421.0
2025-12-08T02:36:18.361553,0,384,0.0,0.0,24.0,24.0,80357421.0
2025-12-08T02:36:18.361553,0,385,0.0,0.0,24.0,24.0,80357421.0
2025-12-08T02:36:18.362556,0,386,0.0,0.0,24.0,24.0,80357421.0
2025-12-08T02:36:18.362556,0,387,0.0,0.0,24.0,24.0,80358398.0
2025-12-08T02:36:18.363548,0,388,0.0,0.0,24.0,24.0,80358398.0
2025-12-08T02:36:18.363548,0,389,0.0,0.0,24.0,24.0,80358398.0
2025-12-08T02:36:18.364553,0,390,0.0,0.0,24.0,24.0,80358398.0
2025-12-08T02:36:18.364553,0,391,0.0,0.0,24.0,24.0,80359375.0
2025-12-08T02:36:18.364553,0,392,0.0,0.0,24.0,24.0,80359375.0
2025-12-08T02:36:18.365553,0,393,0.0,0.0,24.0,24.0,80359375.0
2025-12-08T02:36:18.365553,0,394,0.0,0.0,24.0,24.0,80359375.0
2025-12-08T02:36:18.366553,0,395,0.0,0.0,24.0,24.0,80359375.0
2025-12-08T02:36:18.366553,0,396,0.0,0.0,24.0,24.0,80360351.0
2025-12-08T02:36:18.366553,0,397,0.0,0.0,24.0,24.0,80360351.0
2025-12-08T02:36:18.367553,0,398,0.0,0.0,24.0,24.0,80360351.0
2025-12-08T02:36:18.367553,0,399,0.0,0.0,24.0,24.0,80360351.0
2025-12-08T02:36:18.368553,0,400,0.0,0.0,24.0,24.0,80361328.0
2025-12-08T02:36:18.368553,0,401,0.0,0.0,24.0,24.0,80361328.0
2025-12-08T02:36:18.368553,0,402,0.0,0.0,24.0,24.0,80361328.0
2025-12-08T02:36:18.369553,0,403,0.0,0.0,24.0,24.0,80361328.0
2025-12-08T02:36:18.369553,0,404,0.0,0.0,24.0,24.0,80361328.0
2025-12-08T02:36:18.370553,0,405,0.0,0.0,24.0,24.0,80362304.0
2025-12-08T02:36:18.370749,0,406,0.0,0.0,24.0,24.0,80362304.0
2025-12-08T02:36:18.370749,0,407,0.0,0.0,24.0,24.0,80362304.0
2025-12-08T02:36:18.371755,0,408,0.0,0.0,24.0,24.0,80362304.0
2025-12-08T02:36:18.371755,0,409,0.0,0.0,24.0,24.0,80363281.0
2025-12-08T02:36:18.371755,0,410,0.0,0.0,24.0,24.0,80363281.0
2025-12-08T02:36:18.372753,0,411,0.0,0.0,24.0,24.0,80363281.0
2025-12-08T02:36:18.372753,0,412,0.0,0.0,24.0,24.0,80363281.0
2025-12-08T02:36:18.372753,0,413,0.0,0.0,24.0,24.0,80364257.0
2025-12-08T02:36:18.373752,0,414,0.0,0.0,24.0,24.0,80364257.0
2025-12-08T02:36:18.373752,0,415,0.0,0.0,24.0,24.0,80364257.0
2025-12-08T02:36:18.374752,0,416,0.0,0.0,24.0,24.0,80364257.0
2025-12-08T02:36:18.374752,0,417,0.0,0.0,24.0,24.0,80364257.0
2025-12-08T02:36:18.374752,0,418,0.0,0.0,24.0,24.0,80365234.0
2025-12-08T02:36:18.375751,0,419,0.0,0.0,24.0,24.0,80365234.0
2025-12-08T02:36:18.375751,0,420,0.0,0.0,24.0,24.0,80365234.0
2025-12-08T02:36:18.377039,0,421,0.0,0.0,24.0,24.0,80365234.0
2025-12-08T02:36:18.377153,0,422,0.0,0.0,24.0,24.0,80366210.0
2025-12-08T02:36:18.377153,0,423,0.0,0.0,24.0,24.0,80366210.0
2025-12-08T02:36:18.378237,0,424,0.0,0.0,24.0,24.0,80366210.0
2025-12-08T02:36:18.378237,0,425,0.0,0.0,24.0,24.0,80366210.0
2025-12-08T02:36:18.378237,0,426,0.0,0.0,24.0,24.0,80367187.0
2025-12-08T02:36:18.379178,0,427,0.0,0.0,24.0,24.0,80367187.0
2025-12-08T02:36:18.379178,0,428,0.0,0.0,24.0,24.0,80367187.0
2025-12-08T02:36:18.380225,0,429,0.0,0.0,24.0,24.0,80367187.0
2025-12-08T02:36:18.380225,0,430,0.0,0.0,24.0,24.0,80367187.0
2025-12-08T02:36:18.381225,0,431,0.0,0.0,24.0,24.0,80368164.0
2025-12-08T02:36:18.381225,0,432,0.0,0.0,24.0,24.0,80368164.0
2025-12-08T02:36:18.381225,0,433,0.0,0.0,24.0,24.0,80368164.0
2025-12-08T02:36:18.382226,0,434,0.0,0.0,24.0,24.0,80368164.0
2025-12-08T02:36:18.382226,0,435,0.0,0.0,24.0,24.0,80369140.0
2025-12-08T02:36:18.382226,0,436,0.0,0.0,24.0,24.0,80369140.0
2025-12-08T02:36:18.383226,0,437,0.0,0.0,24.0,24.0,80369140.0
2025-12-08T02:36:18.383226,0,438,0.0,0.0,24.0,24.0,80369140.0
2025-12-08T02:36:18.384232,0,439,0.0,0.0,24.0,24.0,80370117.0
2025-12-08T02:36:18.384232,0,440,0.0,0.0,24.0,24.0,80370117.0
2025-12-08T02:36:18.384232,0,441,0.0,0.0,24.0,24.0,80370117.0
2025-12-08T02:36:18.385227,0,442,0.0,0.0,24.0,24.0,80370117.0
2025-12-08T02:36:18.385227,0,443,0.0,0.0,24.0,24.0,80370117.0
2025-12-08T02:36:18.385227,0,444,0.0,0.0,24.0,24.0,80371093.0
2025-12-08T02:36:18.386229,0,445,0.0,0.0,24.0,24.0,80371093.0
2025-12-08T02:36:18.386229,0,446,0.0,0.0,24.0,24.0,80371093.0
2025-12-08T02:36:18.387233,0,447,0.0,0.0,24.0,24.0,80371093.0
2025-12-08T02:36:18.387233,0,448,0.0,0.0,24.0,24.0,80372070.0
2025-12-08T02:36:18.387233,0,449,0.0,0.0,24.0,24.0,80372070.0
2025-12-08T02:36:18.388230,0,450,0.0,0.0,24.0,24.0,80372070.0
2025-12-08T02:36:18.388230,0,451,0.0,0.0,24.0,24.0,80372070.0
2025-12-08T02:36:18.389232,0,452,0.0,0.0,24.0,24.0,80372070.0
2025-12-08T02:36:18.389232,0,453,0.0,0.0,24.0,24.0,80373046.0
2025-12-08T02:36:18.389232,0,454,0.0,0.0,24.0,24.0,80373046.0
2025-12-08T02:36:18.390223,0,455,0.0,0.0,24.0,24.0,80373046.0
2025-12-08T02:36:18.390223,0,456,0.0,0.0,24.0,24.0,80373046.0
2025-12-08T02:36:18.391226,0,457,0.0,0.0,24.0,24.0,80374023.0
2025-12-08T02:36:18.391226,0,458,0.0,0.0,24.0,24.0,80374023.0
2025-12-08T02:36:18.391226,0,459,0.0,0.0,24.0,24.0,80374023.0
2025-12-08T02:36:18.392226,0,460,0.0,0.0,24.0,24.0,80374023.0
2025-12-08T02:36:18.392226,0,461,0.0,0.0,24.0,24.0,80375000.0
2025-12-08T02:36:18.393227,0,462,0.0,0.0,24.0,24.0,80375000.0
2025-12-08T02:36:18.393227,0,463,0.0,0.0,24.0,24.0,80375000.0
2025-12-08T02:36:18.393227,0,464,0.0,0.0,24.0,24.0,80375000.0
2025-12-08T02:36:18.394182,0,465,0.0,0.0,24.0,24.0,80375000.0
2025-12-08T02:36:18.394182,0,466,0.0,0.0,24.0,24.0,80375976.0
2025-12-08T02:36:18.395181,0,467,0.0,0.0,24.0,24.0,80375976.0
2025-12-08T02:36:18.395181,0,468,0.0,0.0,24.0,24.0,80375976.0
2025-12-08T02:36:18.395181,0,469,0.0,0.0,24.0,24.0,80375976.0
2025-12-08T02:36:18.396182,0,470,0.0,0.0,24.0,24.0,80376953.0
2025-12-08T02:36:18.396182,0,471,0.0,0.0,24.0,24.0,80376953.0
2025-12-08T02:36:18.397181,0,472,0.0,0.0,24.0,24.0,80376953.0
2025-12-08T02:36:18.397181,0,473,0.0,0.0,24.0,24.0,80376953.0
2025-12-08T02:36:18.398180,0,474,0.0,0.0,24.0,24.0,80377929.0
2025-12-08T02:36:18.398180,0,475,0.0,0.0,24.0,24.0,80377929.0
2025-12-08T02:36:18.398180,0,476,0.0,0.0,24.0,24.0,80377929.0
2025-12-08T02:36:18.399180,0,477,0.0,0.0,24.0,24.0,80377929.0
2025-12-08T02:36:18.399180,0,478,0.0,0.0,24.0,24.0,80378906.0
2025-12-08T02:36:18.399180,0,479,0.0,0.0,24.0,24.0,80378906.0
2025-12-08T02:36:18.400180,0,480,0.0,0.0,24.0,24.0,80378906.0
2025-12-08T02:36:18.400180,0,481,0.0,0.0,24.0,24.0,80378906.0
2025-12-08T02:36:18.401180,0,482,0.0,0.0,24.0,24.0,80378906.0
2025-12-08T02:36:18.401180,0,483,0.0,0.0,24.0,24.0,80379882.0
2025-12-08T02:36:18.401180,0,484,0.0,0.0,24.0,24.0,80379882.0
2025-12-08T02:36:18.402180,0,485,0.0,0.0,24.0,24.0,80379882.0
2025-12-08T02:36:18.402180,0,486,0.0,0.0,24.0,24.0,80380859.0
2025-12-08T02:36:18.403180,0,487,0.0,0.0,24.0,24.0,80380859.0
2025-12-08T02:36:18.403180,0,488,0.0,0.0,24.0,24.0,80380859.0
2025-12-08T02:36:18.403180,0,489,0.0,0.0,24.0,24.0,80380859.0
2025-12-08T02:36:18.404180,0,490,0.0,0.0,24.0,24.0,80381835.0
2025-12-08T02:36:18.404180,0,491,0.0,0.0,24.0,24.0,80381835.0
2025-12-08T02:36:18.405279,0,492,0.0,0.0,24.0,24.0,80381835.0
2025-12-08T02:36:18.405329,0,493,0.0,0.0,24.0,24.0,80381835.0
2025-12-08T02:36:18.405329,0,494,0.0,0.0,24.0,24.0,80382812.0
2025-12-08T02:36:18.406380,0,495,0.0,0.0,24.0,24.0,80382812.0
2025-12-08T02:36:18.406380,0,496,0.0,0.0,24.0,24.0,80382812.0
2025-12-08T02:36:18.406380,0,497,0.0,0.0,24.0,24.0,80382812.0
2025-12-08T02:36:18.407385,0,498,0.0,0.0,24.0,24.0,80382812.0
2025-12-08T02:36:18.408377,0,499,0.0,0.0,24.0,24.0,80383789.0
2025-12-08T02:36:18.408377,0,500,0.0,0.0,24.0,24.0,80383789.0
2025-12-08T02:36:18.409382,0,501,0.0,0.0,24.0,24.0,80383789.0
2025-12-08T02:36:18.409382,0,502,0.0,0.0,24.0,24.0,80383789.0
2025-12-08T02:36:18.409382,0,503,0.0,0.0,24.0,24.0,80384765.0
2025-12-08T02:36:18.410376,0,504,0.0,0.0,24.0,24.0,80384765.0
2025-12-08T02:36:18.410376,0,505,0.0,0.0,24.0,24.0,80384765.0
2025-12-08T02:36:18.411377,0,506,0.0,0.0,24.0,24.0,80384765.0
2025-12-08T02:36:18.411377,0,507,0.0,0.0,24.0,24.0,80385742.0
2025-12-08T02:36:18.411377,0,508,0.0,0.0,24.0,24.0,80385742.0
2025-12-08T02:36:18.412378,0,509,0.0,0.0,24.0,24.0,80385742.0
2025-12-08T02:36:18.412378,0,510,0.0,0.0,24.0,24.0,80385742.0
2025-12-08T02:36:18.413368,0,511,0.0,0.0,24.0,24.0,80385742.0
2025-12-08T02:36:18.413368,0,512,0.0,0.0,24.0,24.0,80386718.0
2025-12-08T02:36:18.413368,0,513,0.0,0.0,24.0,24.0,80386718.0
2025-12-08T02:36:18.414378,0,514,0.0,0.0,24.0,24.0,80386718.0
2025-12-08T02:36:18.414378,0,515,0.0,0.0,24.0,24.0,80386718.0
2025-12-08T02:36:18.415376,0,516,0.0,0.0,24.0,24.0,80387695.0
2025-12-08T02:36:18.415376,0,517,0.0,0.0,24.0,24.0,80387695.0
2025-12-08T02:36:18.415376,0,518,0.0,0.0,24.0,24.0,80387695.0
2025-12-08T02:36:18.416379,0,519,0.0,0.0,24.0,24.0,80387695.0
2025-12-08T02:36:18.416379,0,520,0.0,0.0,24.0,24.0,80388671.0
2025-12-08T02:36:18.417383,0,521,0.0,0.0,24.0,24.0,80388671.0
2025-12-08T02:36:18.417383,0,522,0.0,0.0,24.0,24.0,80388671.0
2025-12-08T02:36:18.417383,0,523,0.0,0.0,24.0,24.0,80388671.0
2025-12-08T02:36:18.418375,0,524,0.0,0.0,24.0,24.0,80389648.0
2025-12-08T02:36:18.418375,0,525,0.0,0.0,24.0,24.0,80389648.0
2025-12-08T02:36:18.418375,0,526,0.0,0.0,24.0,24.0,80389648.0
2025-12-08T02:36:18.419384,0,527,0.0,0.0,24.0,24.0,80389648.0
2025-12-08T02:36:18.419384,0,528,0.0,0.0,24.0,24.0,80389648.0
2025-12-08T02:36:18.420457,0,529,0.0,0.0,24.0,24.0,80390625.0
2025-12-08T02:36:18.420457,0,530,0.0,0.0,24.0,24.0,80390625.0
2025-12-08T02:36:18.420457,0,531,0.0,0.0,24.0,24.0,80390625.0
2025-12-08T02:36:18.421512,0,532,0.0,0.0,24.0,24.0,80390625.0
2025-12-08T02:36:18.421512,0,533,0.0,0.0,24.0,24.0,80391601.0
2025-12-08T02:36:18.421512,0,534,0.0,0.0,24.0,24.0,80391601.0
2025-12-08T02:36:18.422512,0,535,0.0,0.0,24.0,24.0,80391601.0
2025-12-08T02:36:18.422512,0,536,0.0,0.0,24.0,24.0,80391601.0
2025-12-08T02:36:18.423506,0,537,0.0,0.0,24.0,24.0,80391601.0
2025-12-08T02:36:18.423506,0,538,0.0,0.0,24.0,24.0,80391601.0
2025-12-08T02:36:18.423506,0,539,0.0,0.0,24.0,24.0,80391601.0
2025-12-08T02:36:18.424512,0,540,0.0,0.0,24.0,24.0,80391601.0
2025-12-08T02:36:18.424512,0,541,0.0,0.0,24.0,24.0,80392578.0
2025-12-08T02:36:18.425508,0,542,0.0,0.0,24.0,24.0,80392578.0
2025-12-08T02:36:18.425508,0,543,0.0,0.0,24.0,24.0,80392578.0
2025-12-08T02:36:18.425508,0,544,0.0,0.0,24.0,24.0,80392578.0
2025-12-08T02:36:18.426511,0,545,0.0,0.0,24.0,24.0,80392578.0
2025-12-08T02:36:18.426511,0,546,0.0,0.0,24.0,24.0,98334960.0
2025-12-08T02:36:18.427505,0,547,0.0,0.0,24.0,24.0,98334960.0
2025-12-08T02:36:18.427505,0,548,0.0,0.0,24.0,24.0,98334960.0
2025-12-08T02:36:18.427505,0,549,0.0,0.0,24.0,24.0,98334960.0
2025-12-08T02:36:18.428512,0,550,0.0,0.0,24.0,24.0,98335937.0
2025-12-08T02:36:18.428512,0,551,0.0,0.0,24.0,24.0,98335937.0
2025-12-08T02:36:18.429462,0,552,0.0,0.0,24.0,24.0,98335937.0
2025-12-08T02:36:18.429462,0,553,0.0,0.0,24.0,24.0,98335937.0
2025-12-08T02:36:18.429462,0,554,0.0,0.0,24.0,24.0,98335937.0
2025-12-08T02:36:18.430515,0,555,0.0,0.0,24.0,24.0,98336914.0
2025-12-08T02:36:18.430515,0,556,0.0,0.0,24.0,24.0,98336914.0
2025-12-08T02:36:18.431503,0,557,0.0,0.0,24.0,24.0,98336914.0
2025-12-08T02:36:18.431503,0,558,0.0,0.0,24.0,24.0,98337890.0
2025-12-08T02:36:18.431503,0,559,0.0,0.0,24.0,24.0,98337890.0
2025-12-08T02:36:18.432504,0,560,0.0,0.0,24.0,24.0,98337890.0
2025-12-08T02:36:18.432504,0,561,0.0,0.0,24.0,24.0,98337890.0
2025-12-08T02:36:18.433505,0,562,0.0,0.0,24.0,24.0,98338867.0
2025-12-08T02:36:18.433505,0,563,0.0,0.0,24.0,24.0,98338867.0
2025-12-08T02:36:18.433505,0,564,0.0,0.0,24.0,24.0,98338867.0
2025-12-08T02:36:18.434505,0,565,0.0,0.0,24.0,24.0,98338867.0
2025-12-08T02:36:18.434505,0,566,0.0,0.0,24.0,24.0,98339843.0
2025-12-08T02:36:18.435505,0,567,0.0,0.0,24.0,24.0,98339843.0
2025-12-08T02:36:18.435505,0,568,0.0,0.0,24.0,24.0,98339843.0
2025-12-08T02:36:18.435505,0,569,0.0,0.0,24.0,24.0,98339843.0
2025-12-08T02:36:18.436508,0,570,0.0,0.0,24.0,24.0,98340820.0
2025-12-08T02:36:18.436508,0,571,0.0,0.0,24.0,24.0,98340820.0
2025-12-08T02:36:18.437512,0,572,0.0,0.0,24.0,24.0,98340820.0
2025-12-08T02:36:18.437759,0,573,0.0,0.0,24.0,24.0,98340820.0
2025-12-08T02:36:18.437759,0,574,0.0,0.0,24.0,24.0,98340820.0
2025-12-08T02:36:18.438771,0,575,0.0,0.0,24.0,24.0,98341796.0
2025-12-08T02:36:18.438771,0,576,0.0,0.0,24.0,24.0,98341796.0
2025-12-08T02:36:18.439812,0,577,0.0,0.0,24.0,24.0,98341796.0
2025-12-08T02:36:18.439812,0,578,0.0,0.0,24.0,24.0,98341796.0
2025-12-08T02:36:18.440812,0,579,0.0,0.0,24.0,24.0,98342773.0
2025-12-08T02:36:18.440812,0,580,0.0,0.0,24.0,24.0,98342773.0
2025-12-08T02:36:18.440812,0,581,0.0,0.0,24.0,24.0,98342773.0
2025-12-08T02:36:18.441823,0,582,0.0,0.0,24.0,24.0,98342773.0
2025-12-08T02:36:18.441823,0,583,0.0,0.0,24.0,24.0,98343750.0
2025-12-08T02:36:18.442818,0,584,0.0,0.0,24.0,24.0,98343750.0
2025-12-08T02:36:18.442818,0,585,0.0,0.0,24.0,24.0,98343750.0
2025-12-08T02:36:18.442818,0,586,0.0,0.0,24.0,24.0,98343750.0
2025-12-08T02:36:18.443817,0,587,0.0,0.0,24.0,24.0,98344726.0
2025-12-08T02:36:18.443817,0,588,0.0,0.0,24.0,24.0,98344726.0
2025-12-08T02:36:18.444815,0,589,0.0,0.0,24.0,24.0,98344726.0
2025-12-08T02:36:18.444815,0,590,0.0,0.0,24.0,24.0,98344726.0
2025-12-08T02:36:18.444815,0,591,0.0,0.0,24.0,24.0,98345703.0
2025-12-08T02:36:18.445828,0,592,0.0,0.0,24.0,24.0,98345703.0
2025-12-08T02:36:18.445828,0,593,0.0,0.0,24.0,24.0,98345703.0
2025-12-08T02:36:18.446813,0,594,0.0,0.0,24.0,24.0,98345703.0
2025-12-08T02:36:18.446813,0,595,0.0,0.0,24.0,24.0,98346679.0
2025-12-08T02:36:18.447814,0,596,0.0,0.0,24.0,24.0,98346679.0
2025-12-08T02:36:18.447814,0,597,0.0,0.0,24.0,24.0,98346679.0
2025-12-08T02:36:18.447814,0,598,0.0,0.0,24.0,24.0,98346679.0
2025-12-08T02:36:18.448812,0,599,0.0,0.0,24.0,24.0,98347656.0
2025-12-08T02:36:18.448812,0,600,0.0,0.0,24.0,24.0,98347656.0
2025-12-08T02:36:18.449820,0,601,0.0,0.0,24.0,24.0,98347656.0
2025-12-08T02:36:18.449820,0,602,0.0,0.0,24.0,24.0,98347656.0
2025-12-08T02:36:18.450812,0,603,0.0,0.0,24.0,24.0,98348632.0
2025-12-08T02:36:18.450812,0,604,0.0,0.0,24.0,24.0,98348632.0
2025-12-08T02:36:18.450812,0,605,0.0,0.0,24.0,24.0,98348632.0
2025-12-08T02:36:18.451820,0,606,0.0,0.0,24.0,24.0,98348632.0
2025-12-08T02:36:18.451820,0,607,0.0,0.0,24.0,24.0,98348632.0
2025-12-08T02:36:18.452812,0,608,0.0,0.0,24.0,24.0,98349609.0
2025-12-08T02:36:18.453824,0,609,0.0,0.0,24.0,24.0,98349609.0
2025-12-08T02:36:18.453995,0,610,0.0,0.0,24.0,24.0,98349609.0
2025-12-08T02:36:18.453995,0,611,0.0,0.0,24.0,24.0,98349609.0
2025-12-08T02:36:18.455044,0,612,0.0,0.0,24.0,24.0,98350585.0
2025-12-08T02:36:18.455044,0,613,0.0,0.0,24.0,24.0,98350585.0
2025-12-08T02:36:18.456048,0,614,0.0,0.0,24.0,24.0,98350585.0
2025-12-08T02:36:18.456048,0,615,0.0,0.0,24.0,24.0,98350585.0
2025-12-08T02:36:18.457044,0,616,0.0,0.0,24.0,24.0,98350585.0
2025-12-08T02:36:18.457044,0,617,0.0,0.0,24.0,24.0,98351562.0
2025-12-08T02:36:18.458044,0,618,0.0,0.0,24.0,24.0,98351562.0
2025-12-08T02:36:18.458044,0,619,0.0,0.0,24.0,24.0,98351562.0
2025-12-08T02:36:18.459042,0,620,0.0,0.0,24.0,24.0,98351562.0
2025-12-08T02:36:18.459042,0,621,0.0,0.0,24.0,24.0,98352539.0
2025-12-08T02:36:18.460041,0,622,0.0,0.0,24.0,24.0,98352539.0
2025-12-08T02:36:18.460041,0,623,0.0,0.0,24.0,24.0,98352539.0
2025-12-08T02:36:18.461041,0,624,0.0,0.0,24.0,24.0,98352539.0
2025-12-08T02:36:18.461041,0,625,0.0,0.0,24.0,24.0,98352539.0
2025-12-08T02:36:18.462046,0,626,0.0,0.0,24.0,24.0,98353515.0
2025-12-08T02:36:18.462046,0,627,0.0,0.0,24.0,24.0,98353515.0
2025-12-08T02:36:18.463046,0,628,0.0,0.0,24.0,24.0,98353515.0
2025-12-08T02:36:18.463046,0,629,0.0,0.0,24.0,24.0,98353515.0
2025-12-08T02:36:18.464042,0,630,0.0,0.0,24.0,24.0,98354492.0
2025-12-08T02:36:18.464042,0,631,0.0,0.0,24.0,24.0,98354492.0
2025-12-08T02:36:18.465038,0,632,0.0,0.0,24.0,24.0,98354492.0
2025-12-08T02:36:18.465038,0,633,0.0,0.0,24.0,24.0,98354492.0
2025-12-08T02:36:18.466044,0,634,0.0,0.0,24.0,24.0,98355468.0
2025-12-08T02:36:18.466044,0,635,0.0,0.0,24.0,24.0,98355468.0
2025-12-08T02:36:18.467044,0,636,0.0,0.0,24.0,24.0,98355468.0
2025-12-08T02:36:18.467044,0,637,0.0,0.0,24.0,24.0,98355468.0
2025-12-08T02:36:18.468223,0,638,0.0,0.0,24.0,24.0,98355468.0
2025-12-08T02:36:18.468745,0,639,0.0,0.0,24.0,24.0,98356445.0
2025-12-08T02:36:18.468745,0,640,0.0,0.0,24.0,24.0,98356445.0
2025-12-08T02:36:18.469770,0,641,0.0,0.0,24.0,24.0,98356445.0
2025-12-08T02:36:18.469770,0,642,0.0,0.0,24.0,24.0,98356445.0
2025-12-08T02:36:18.470769,0,643,0.0,0.0,24.0,24.0,98357421.0
2025-12-08T02:36:18.470769,0,644,0.0,0.0,24.0,24.0,98357421.0
2025-12-08T02:36:18.470769,0,645,0.0,0.0,24.0,24.0,98357421.0
2025-12-08T02:36:18.471995,0,646,0.0,0.0,24.0,24.0,98357421.0
2025-12-08T02:36:18.472915,0,647,0.0,0.0,24.0,24.0,98358398.0
2025-12-08T02:36:18.473927,0,648,0.0,0.0,24.0,24.0,98358398.0
2025-12-08T02:36:18.474926,0,649,0.0,0.0,24.0,24.0,98358398.0
2025-12-08T02:36:18.475925,0,650,0.0,0.0,24.0,24.0,98358398.0
2025-12-08T02:36:18.476925,0,651,0.0,0.0,24.0,24.0,98358398.0
2025-12-08T02:36:18.477926,0,652,0.0,0.0,24.0,24.0,98359375.0
2025-12-08T02:36:18.477926,0,653,0.0,0.0,24.0,24.0,98359375.0
2025-12-08T02:36:18.477926,0,654,0.0,0.0,24.0,24.0,98359375.0
2025-12-08T02:36:18.478924,0,655,0.0,0.0,24.0,24.0,98359375.0
2025-12-08T02:36:18.478924,0,656,0.0,0.0,24.0,24.0,98360351.0
2025-12-08T02:36:18.479924,0,657,0.0,0.0,24.0,24.0,98360351.0
2025-12-08T02:36:18.479924,0,658,0.0,0.0,24.0,24.0,98360351.0
2025-12-08T02:36:18.480923,0,659,0.0,0.0,24.0,24.0,98361328.0
2025-12-08T02:36:18.480923,0,660,0.0,0.0,24.0,24.0,98361328.0
2025-12-08T02:36:18.480923,0,661,0.0,0.0,24.0,24.0,98361328.0
2025-12-08T02:36:18.481922,0,662,0.0,0.0,24.0,24.0,98361328.0
2025-12-08T02:36:18.481922,0,663,0.0,0.0,24.0,24.0,98361328.0
2025-12-08T02:36:18.482922,0,664,0.0,0.0,24.0,24.0,98362304.0
2025-12-08T02:36:18.482922,0,665,0.0,0.0,24.0,24.0,98362304.0
2025-12-08T02:36:18.483923,0,666,0.0,0.0,24.0,24.0,98362304.0
2025-12-08T02:36:18.483923,0,667,0.0,0.0,24.0,24.0,98362304.0
2025-12-08T02:36:18.484924,0,668,0.0,0.0,24.0,24.0,98363281.0
2025-12-08T02:36:18.484924,0,669,0.0,0.0,24.0,24.0,98363281.0
2025-12-08T02:36:18.485923,0,670,0.0,0.0,24.0,24.0,98363281.0
2025-12-08T02:36:18.485923,0,671,0.0,0.0,24.0,24.0,98363281.0
2025-12-08T02:36:18.485923,0,672,0.0,0.0,24.0,24.0,98364257.0
2025-12-08T02:36:18.487064,0,673,0.0,0.0,24.0,24.0,98364257.0
2025-12-08T02:36:18.487064,0,674,0.0,0.0,24.0,24.0,98364257.0
2025-12-08T02:36:18.487064,0,675,0.0,0.0,24.0,24.0,98364257.0
2025-12-08T02:36:18.488113,0,676,0.0,0.0,24.0,24.0,98365234.0
2025-12-08T02:36:18.488113,0,677,0.0,0.0,24.0,24.0,98365234.0
2025-12-08T02:36:18.489112,0,678,0.0,0.0,24.0,24.0,98365234.0
2025-12-08T02:36:18.489112,0,679,0.0,0.0,24.0,24.0,98365234.0
2025-12-08T02:36:18.489112,0,680,0.0,0.0,24.0,24.0,98365234.0
2025-12-08T02:36:18.490112,0,681,0.0,0.0,24.0,24.0,98366210.0
2025-12-08T02:36:18.490112,0,682,0.0,0.0,24.0,24.0,98366210.0
2025-12-08T02:36:18.491113,0,683,0.0,0.0,24.0,24.0,98366210.0
2025-12-08T02:36:18.491113,0,684,0.0,0.0,24.0,24.0,98366210.0
2025-12-08T02:36:18.492109,0,685,0.0,0.0,24.0,24.0,98367187.0
2025-12-08T02:36:18.492109,0,686,0.0,0.0,24.0,24.0,98367187.0
2025-12-08T02:36:18.492109,0,687,0.0,0.0,24.0,24.0,98367187.0
2025-12-08T02:36:18.493108,0,688,0.0,0.0,24.0,24.0,98368164.0
2025-12-08T02:36:18.493108,0,689,0.0,0.0,24.0,24.0,98368164.0
2025-12-08T02:36:18.494119,0,690,0.0,0.0,24.0,24.0,98368164.0
2025-12-08T02:36:18.494119,0,691,0.0,0.0,24.0,24.0,98368164.0
2025-12-08T02:36:18.494119,0,692,0.0,0.0,24.0,24.0,98369140.0
2025-12-08T02:36:18.495107,0,693,0.0,0.0,24.0,24.0,98369140.0
2025-12-08T02:36:18.495107,0,694,0.0,0.0,24.0,24.0,98369140.0
2025-12-08T02:36:18.496073,0,695,0.0,0.0,24.0,24.0,98369140.0
2025-12-08T02:36:18.496073,0,696,0.0,0.0,24.0,24.0,98370117.0
2025-12-08T02:36:18.496073,0,697,0.0,0.0,24.0,24.0,98370117.0
2025-12-08T02:36:18.497124,0,698,0.0,0.0,24.0,24.0,98370117.0
2025-12-08T02:36:18.497124,0,699,0.0,0.0,24.0,24.0,98370117.0
2025-12-08T02:36:18.498112,0,700,0.0,0.0,24.0,24.0,98371093.0
2025-12-08T02:36:18.498112,0,701,0.0,0.0,24.0,24.0,98371093.0
2025-12-08T02:36:18.499110,0,702,0.0,0.0,24.0,24.0,98371093.0
2025-12-08T02:36:18.499110,0,703,0.0,0.0,24.0,24.0,98371093.0
2025-12-08T02:36:18.499110,0,704,0.0,0.0,24.0,24.0,98372070.0
2025-12-08T02:36:18.500107,0,705,0.0,0.0,24.0,24.0,98372070.0
2025-12-08T02:36:18.500107,0,706,0.0,0.0,24.0,24.0,98372070.0
2025-12-08T02:36:18.501108,0,707,0.0,0.0,24.0,24.0,98372070.0
2025-12-08T02:36:18.501108,0,708,0.0,0.0,24.0,24.0,98372070.0
2025-12-08T02:36:18.502115,0,709,0.0,0.0,24.0,24.0,98373046.0
2025-12-08T02:36:18.502115,0,710,0.0,0.0,24.0,24.0,98373046.0
2025-12-08T02:36:18.502115,0,711,0.0,0.0,24.0,24.0,98373046.0
2025-12-08T02:36:18.503120,0,712,0.0,0.0,24.0,24.0,98373046.0
2025-12-08T02:36:18.503120,0,713,0.0,0.0,24.0,24.0,98374023.0
2025-12-08T02:36:18.504192,0,714,0.0,0.0,24.0,24.0,98374023.0
2025-12-08T02:36:18.504192,0,715,0.0,0.0,24.0,24.0,98374023.0
2025-12-08T02:36:18.504192,0,716,0.0,0.0,24.0,24.0,98374023.0
2025-12-08T02:36:18.505240,0,717,0.0,0.0,24.0,24.0,98375000.0
2025-12-08T02:36:18.505240,0,718,0.0,0.0,24.0,24.0,98375000.0
2025-12-08T02:36:18.506245,0,719,0.0,0.0,24.0,24.0,98375000.0
2025-12-08T02:36:18.506245,0,720,0.0,0.0,24.0,24.0,98375000.0
2025-12-08T02:36:18.506245,0,721,0.0,0.0,24.0,24.0,98375976.0
2025-12-08T02:36:18.507242,0,722,0.0,0.0,24.0,24.0,98375976.0
2025-12-08T02:36:18.507242,0,723,0.0,0.0,24.0,24.0,98375976.0
2025-12-08T02:36:18.508239,0,724,0.0,0.0,24.0,24.0,98375976.0
2025-12-08T02:36:18.508239,0,725,0.0,0.0,24.0,24.0,98375976.0
2025-12-08T02:36:18.508239,0,726,0.0,0.0,24.0,24.0,98376953.0
2025-12-08T02:36:18.509246,0,727,0.0,0.0,24.0,24.0,98376953.0
2025-12-08T02:36:18.509246,0,728,0.0,0.0,24.0,24.0,98376953.0
2025-12-08T02:36:18.510246,0,729,0.0,0.0,24.0,24.0,98376953.0
2025-12-08T02:36:18.510246,0,730,0.0,0.0,24.0,24.0,98377929.0
2025-12-08T02:36:18.511242,0,731,0.0,0.0,24.0,24.0,98377929.0
2025-12-08T02:36:18.511242,0,732,0.0,0.0,24.0,24.0,98377929.0
2025-12-08T02:36:18.511242,0,733,0.0,0.0,24.0,24.0,98377929.0
2025-12-08T02:36:18.512244,0,734,0.0,0.0,24.0,24.0,98378906.0
2025-12-08T02:36:18.512244,0,735,0.0,0.0,24.0,24.0,98378906.0
2025-12-08T02:36:18.513251,0,736,0.0,0.0,24.0,24.0,98378906.0
2025-12-08T02:36:18.513251,0,737,0.0,0.0,24.0,24.0,98378906.0
2025-12-08T02:36:18.514379,0,738,0.0,0.0,24.0,24.0,98379882.0
2025-12-08T02:36:18.514379,0,739,0.0,0.0,24.0,24.0,98379882.0
2025-12-08T02:36:18.515461,0,740,0.0,0.0,24.0,24.0,98379882.0
2025-12-08T02:36:18.515461,0,741,0.0,0.0,24.0,24.0,98379882.0
2025-12-08T02:36:18.516460,0,742,0.0,0.0,24.0,24.0,98380859.0
2025-12-08T02:36:18.516460,0,743,0.0,0.0,24.0,24.0,98380859.0
2025-12-08T02:36:18.517457,0,744,0.0,0.0,24.0,24.0,98380859.0
2025-12-08T02:36:18.517457,0,745,0.0,0.0,24.0,24.0,98380859.0
2025-12-08T02:36:18.517457,0,746,0.0,0.0,24.0,24.0,98381835.0
2025-12-08T02:36:18.518457,0,747,0.0,0.0,24.0,24.0,98381835.0
2025-12-08T02:36:18.518457,0,748,0.0,0.0,24.0,24.0,98381835.0
2025-12-08T02:36:18.519457,0,749,0.0,0.0,24.0,24.0,98381835.0
2025-12-08T02:36:18.519457,0,750,0.0,0.0,24.0,24.0,98381835.0
2025-12-08T02:36:18.519457,0,751,0.0,0.0,24.0,24.0,98382812.0
2025-12-08T02:36:18.520574,0,752,0.0,0.0,24.0,24.0,98382812.0
2025-12-08T02:36:18.520574,0,753,0.0,0.0,24.0,24.0,98382812.0
2025-12-08T02:36:18.521625,0,754,0.0,0.0,24.0,24.0,98383789.0
2025-12-08T02:36:18.521625,0,755,0.0,0.0,24.0,24.0,98383789.0
2025-12-08T02:36:18.521625,0,756,0.0,0.0,24.0,24.0,98383789.0
2025-12-08T02:36:18.522630,0,757,0.0,0.0,24.0,24.0,98383789.0
2025-12-08T02:36:18.522630,0,758,0.0,0.0,24.0,24.0,98384765.0
2025-12-08T02:36:18.523626,0,759,0.0,0.0,24.0,24.0,98384765.0
2025-12-08T02:36:18.523626,0,760,0.0,0.0,24.0,24.0,98384765.0
2025-12-08T02:36:18.524623,0,761,0.0,0.0,24.0,24.0,98384765.0
2025-12-08T02:36:18.524623,0,762,0.0,0.0,24.0,24.0,98384765.0
2025-12-08T02:36:18.524623,0,763,0.0,0.0,24.0,24.0,98385742.0
2025-12-08T02:36:18.525626,0,764,0.0,0.0,24.0,24.0,98385742.0
2025-12-08T02:36:18.525626,0,765,0.0,0.0,24.0,24.0,98385742.0
2025-12-08T02:36:18.526624,0,766,0.0,0.0,24.0,24.0,98385742.0
2025-12-08T02:36:18.526624,0,767,0.0,0.0,24.0,24.0,98386718.0
2025-12-08T02:36:18.526624,0,768,0.0,0.0,24.0,24.0,98386718.0
2025-12-08T02:36:18.527621,0,769,0.0,0.0,24.0,24.0,98386718.0
2025-12-08T02:36:18.527621,0,770,0.0,0.0,24.0,24.0,98386718.0
2025-12-08T02:36:18.528624,0,771,0.0,0.0,24.0,24.0,98387695.0
2025-12-08T02:36:18.528624,0,772,0.0,0.0,24.0,24.0,98387695.0
2025-12-08T02:36:18.529579,0,773,0.0,0.0,24.0,24.0,98387695.0
2025-12-08T02:36:18.530576,0,774,0.0,0.0,24.0,24.0,98387695.0
2025-12-08T02:36:18.530576,0,775,0.0,0.0,24.0,24.0,98388671.0
2025-12-08T02:36:18.530576,0,776,0.0,0.0,24.0,24.0,98388671.0
2025-12-08T02:36:18.531575,0,777,0.0,0.0,24.0,24.0,98388671.0
2025-12-08T02:36:18.531575,0,778,0.0,0.0,24.0,24.0,98388671.0
2025-12-08T02:36:18.532574,0,779,0.0,0.0,24.0,24.0,98389648.0
2025-12-08T02:36:18.532574,0,780,0.0,0.0,24.0,24.0,98389648.0
2025-12-08T02:36:18.533576,0,781,0.0,0.0,24.0,24.0,98389648.0
2025-12-08T02:36:18.533576,0,782,0.0,0.0,24.0,24.0,98389648.0
2025-12-08T02:36:18.534577,0,783,0.0,0.0,24.0,24.0,98389648.0
2025-12-08T02:36:18.534577,0,784,0.0,0.0,24.0,24.0,98390625.0
2025-12-08T02:36:18.535574,0,785,0.0,0.0,24.0,24.0,98390625.0
2025-12-08T02:36:18.535574,0,786,0.0,0.0,24.0,24.0,98390625.0
2025-12-08T02:36:18.536574,0,787,0.0,0.0,24.0,24.0,98390625.0
2025-12-08T02:36:18.536574,0,788,0.0,0.0,24.0,24.0,98391601.0
2025-12-08T02:36:18.536574,0,789,0.0,0.0,24.0,24.0,98391601.0
2025-12-08T02:36:18.537719,0,790,0.0,0.0,24.0,24.0,98391601.0
2025-12-08T02:36:18.537719,0,791,0.0,0.0,24.0,24.0,98391601.0
2025-12-08T02:36:18.538766,0,792,0.0,0.0,24.0,24.0,98392578.0
2025-12-08T02:36:18.538766,0,793,0.0,0.0,24.0,24.0,98392578.0
2025-12-08T02:36:18.538766,0,794,0.0,0.0,24.0,24.0,98392578.0
2025-12-08T02:36:18.539776,0,795,0.0,0.0,24.0,24.0,98392578.0
2025-12-08T02:36:18.539776,0,796,0.0,0.0,24.0,24.0,98392578.0
2025-12-08T02:36:18.540769,0,797,0.0,0.0,24.0,24.0,98393554.0
2025-12-08T02:36:18.540769,0,798,0.0,0.0,24.0,24.0,98393554.0
2025-12-08T02:36:18.540769,0,799,0.0,0.0,24.0,24.0,98393554.0
2025-12-08T02:36:18.541765,0,800,0.0,0.0,24.0,24.0,98393554.0
2025-12-08T02:36:18.541765,0,801,0.0,0.0,24.0,24.0,98394531.0
2025-12-08T02:36:18.542770,0,802,0.0,0.0,24.0,24.0,98394531.0
2025-12-08T02:36:18.542770,0,803,0.0,0.0,24.0,24.0,98394531.0
2025-12-08T02:36:18.542770,0,804,0.0,0.0,24.0,24.0,98394531.0
2025-12-08T02:36:18.543767,0,805,0.0,0.0,24.0,24.0,98395507.0
2025-12-08T02:36:18.543767,0,806,0.0,0.0,24.0,24.0,98395507.0
2025-12-08T02:36:18.544765,0,807,0.0,0.0,24.0,24.0,98395507.0
2025-12-08T02:36:18.544765,0,808,0.0,0.0,24.0,24.0,98395507.0
2025-12-08T02:36:18.544765,0,809,0.0,0.0,24.0,24.0,98396484.0
2025-12-08T02:36:18.545767,0,810,0.0,0.0,24.0,24.0,98396484.0
2025-12-08T02:36:18.545767,0,811,0.0,0.0,24.0,24.0,98396484.0
2025-12-08T02:36:18.546768,0,812,0.0,0.0,24.0,24.0,98396484.0
2025-12-08T02:36:18.546768,0,813,0.0,0.0,24.0,24.0,98396484.0
2025-12-08T02:36:18.547771,0,814,0.0,0.0,24.0,24.0,98397460.0
2025-12-08T02:36:18.547771,0,815,0.0,0.0,24.0,24.0,98397460.0
2025-12-08T02:36:18.547771,0,816,0.0,0.0,24.0,24.0,98397460.0
2025-12-08T02:36:18.547771,0,817,0.0,0.0,24.0,24.0,98397460.0
2025-12-08T02:36:18.547771,0,818,0.0,0.0,24.0,24.0,98398437.0
2025-12-08T02:36:18.547771,0,819,0.0,0.0,24.0,24.0,98398437.0
2025-12-08T02:36:18.547771,0,820,0.0,0.0,24.0,24.0,98398437.0
2025-12-08T02:36:18.547771,0,821,0.0,0.0,24.0,24.0,98399414.0
2025-12-08T02:36:18.547771,0,822,0.0,0.0,24.0,24.0,98399414.0
2025-12-08T02:36:18.547771,0,823,0.0,0.0,24.0,24.0,98399414.0
2025-12-08T02:36:18.547771,0,824,0.0,0.0,24.0,24.0,98399414.0
2025-12-08T02:36:18.547771,0,825,0.0,0.0,24.0,24.0,98400390.0
2025-12-08T02:36:18.552317,0,826,0.0,0.0,24.0,24.0,98400390.0
2025-12-08T02:36:18.552867,0,827,0.0,0.0,24.0,24.0,98400390.0
2025-12-08T02:36:18.552867,0,828,0.0,0.0,24.0,24.0,98400390.0
2025-12-08T02:36:18.552867,0,829,0.0,0.0,24.0,24.0,98400390.0
2025-12-08T02:36:18.554041,0,830,0.0,0.0,24.0,24.0,98401367.0
2025-12-08T02:36:18.554041,0,831,0.0,0.0,24.0,24.0,98401367.0
2025-12-08T02:36:18.554041,0,832,0.0,0.0,24.0,24.0,98401367.0
2025-12-08T02:36:18.555051,0,833,0.0,0.0,24.0,24.0,98402343.0
2025-12-08T02:36:18.555051,0,834,0.0,0.0,24.0,24.0,98402343.0
2025-12-08T02:36:18.556050,0,835,0.0,0.0,24.0,24.0,98402343.0
2025-12-08T02:36:18.556050,0,836,0.0,0.0,24.0,24.0,98402343.0
2025-12-08T02:36:18.556050,0,837,0.0,0.0,24.0,24.0,98402343.0
2025-12-08T02:36:18.557049,0,838,0.0,0.0,24.0,24.0,98403320.0
2025-12-08T02:36:18.557049,0,839,0.0,0.0,24.0,24.0,98403320.0
2025-12-08T02:36:18.558049,0,840,0.0,0.0,24.0,24.0,98403320.0
2025-12-08T02:36:18.558049,0,841,0.0,0.0,24.0,24.0,98404296.0
2025-12-08T02:36:18.558049,0,842,0.0,0.0,24.0,24.0,98404296.0
2025-12-08T02:36:18.559048,0,843,0.0,0.0,24.0,24.0,98404296.0
2025-12-08T02:36:18.559048,0,844,0.0,0.0,24.0,24.0,98404296.0
2025-12-08T02:36:18.560049,0,845,0.0,0.0,24.0,24.0,98405273.0
2025-12-08T02:36:18.560049,0,846,0.0,0.0,24.0,24.0,98405273.0
2025-12-08T02:36:18.561051,0,847,0.0,0.0,24.0,24.0,98405273.0
2025-12-08T02:36:18.561051,0,848,0.0,0.0,24.0,24.0,98405273.0
2025-12-08T02:36:18.561051,0,849,0.0,0.0,24.0,24.0,98406250.0
2025-12-08T02:36:18.562100,0,850,0.0,0.0,24.0,24.0,98406250.0
2025-12-08T02:36:18.562100,0,851,0.0,0.0,24.0,24.0,98406250.0
2025-12-08T02:36:18.563103,0,852,0.0,0.0,24.0,24.0,98406250.0
2025-12-08T02:36:18.563103,0,853,0.0,0.0,24.0,24.0,98407226.0
2025-12-08T02:36:18.563103,0,854,0.0,0.0,24.0,24.0,98407226.0
2025-12-08T02:36:18.564092,0,855,0.0,0.0,24.0,24.0,98407226.0
2025-12-08T02:36:18.564092,0,856,0.0,0.0,24.0,24.0,98407226.0
2025-12-08T02:36:18.565090,0,857,0.0,0.0,24.0,24.0,98408203.0
2025-12-08T02:36:18.565090,0,858,0.0,0.0,24.0,24.0,98408203.0
2025-12-08T02:36:18.565090,0,859,0.0,0.0,24.0,24.0,98408203.0
2025-12-08T02:36:18.566101,0,860,0.0,0.0,24.0,24.0,98408203.0
2025-12-08T02:36:18.566101,0,861,0.0,0.0,24.0,24.0,98408203.0
2025-12-08T02:36:18.567096,0,862,0.0,0.0,24.0,24.0,98409179.0
2025-12-08T02:36:18.567096,0,863,0.0,0.0,24.0,24.0,98409179.0
2025-12-08T02:36:18.567096,0,864,0.0,0.0,24.0,24.0,98409179.0
2025-12-08T02:36:18.568103,0,865,0.0,0.0,24.0,24.0,98410156.0
2025-12-08T02:36:18.568103,0,866,0.0,0.0,24.0,24.0,98410156.0
2025-12-08T02:36:18.568103,0,867,0.0,0.0,24.0,24.0,98410156.0
2025-12-08T02:36:18.569094,0,868,0.0,0.0,24.0,24.0,98410156.0
2025-12-08T02:36:18.569094,0,869,0.0,0.0,24.0,24.0,98410156.0
2025-12-08T02:36:18.570165,0,870,0.0,0.0,24.0,24.0,98411132.0
2025-12-08T02:36:18.570165,0,871,0.0,0.0,24.0,24.0,98411132.0
2025-12-08T02:36:18.570165,0,872,0.0,0.0,24.0,24.0,98411132.0
2025-12-08T02:36:18.571218,0,873,0.0,0.0,24.0,24.0,98411132.0
2025-12-08T02:36:18.571218,0,874,0.0,0.0,24.0,24.0,98412109.0
2025-12-08T02:36:18.572212,0,875,0.0,0.0,24.0,24.0,98412109.0
2025-12-08T02:36:18.572212,0,876,0.0,0.0,24.0,24.0,98412109.0
2025-12-08T02:36:18.572212,0,877,0.0,0.0,24.0,24.0,98412109.0
2025-12-08T02:36:18.573212,0,878,0.0,0.0,24.0,24.0,98413085.0
2025-12-08T02:36:18.573212,0,879,0.0,0.0,24.0,24.0,98413085.0
2025-12-08T02:36:18.574212,0,880,0.0,0.0,24.0,24.0,98413085.0
2025-12-08T02:36:18.574212,0,881,0.0,0.0,24.0,24.0,98413085.0
2025-12-08T02:36:18.574212,0,882,0.0,0.0,24.0,24.0,98413085.0
2025-12-08T02:36:18.575212,0,883,0.0,0.0,24.0,24.0,98414062.0
2025-12-08T02:36:18.575212,0,884,0.0,0.0,24.0,24.0,98414062.0
2025-12-08T02:36:18.576211,0,885,0.0,0.0,24.0,24.0,98414062.0
2025-12-08T02:36:18.576211,0,886,0.0,0.0,24.0,24.0,98414062.0
2025-12-08T02:36:18.576211,0,887,0.0,0.0,24.0,24.0,98415039.0
2025-12-08T02:36:18.577171,0,888,0.0,0.0,24.0,24.0,98415039.0
2025-12-08T02:36:18.577171,0,889,0.0,0.0,24.0,24.0,98415039.0
2025-12-08T02:36:18.578169,0,890,0.0,0.0,24.0,24.0,98415039.0
2025-12-08T02:36:18.578169,0,891,0.0,0.0,24.0,24.0,98416015.0
2025-12-08T02:36:18.578169,0,892,0.0,0.0,24.0,24.0,98416015.0
2025-12-08T02:36:18.579169,0,893,0.0,0.0,24.0,24.0,98416015.0
2025-12-08T02:36:18.579169,0,894,0.0,0.0,24.0,24.0,98416015.0
2025-12-08T02:36:18.580170,0,895,0.0,0.0,24.0,24.0,98416992.0
2025-12-08T02:36:18.580170,0,896,0.0,0.0,24.0,24.0,98416992.0
2025-12-08T02:36:18.580170,0,897,0.0,0.0,24.0,24.0,98416992.0
2025-12-08T02:36:18.581169,0,898,0.0,0.0,24.0,24.0,98416992.0
2025-12-08T02:36:18.581169,0,899,0.0,0.0,24.0,24.0,98417968.0
2025-12-08T02:36:18.582169,0,900,0.0,0.0,24.0,24.0,98417968.0
2025-12-08T02:36:18.582169,0,901,0.0,0.0,24.0,24.0,98417968.0
2025-12-08T02:36:18.582169,0,902,0.0,0.0,24.0,24.0,98417968.0
2025-12-08T02:36:18.583169,0,903,0.0,0.0,24.0,24.0,98417968.0
2025-12-08T02:36:18.583169,0,904,0.0,0.0,24.0,24.0,98418945.0
2025-12-08T02:36:18.584168,0,905,0.0,0.0,24.0,24.0,98418945.0
2025-12-08T02:36:18.584168,0,906,0.0,0.0,24.0,24.0,98418945.0
2025-12-08T02:36:18.584168,0,907,0.0,0.0,24.0,24.0,98418945.0
2025-12-08T02:36:18.585168,0,908,0.0,0.0,24.0,24.0,98419921.0
2025-12-08T02:36:18.585168,0,909,0.0,0.0,24.0,24.0,98419921.0
2025-12-08T02:36:18.586168,0,910,0.0,0.0,24.0,24.0,98419921.0
2025-12-08T02:36:18.586168,0,911,0.0,0.0,24.0,24.0,98419921.0
2025-12-08T02:36:18.587169,0,912,0.0,0.0,24.0,24.0,98419921.0
2025-12-08T02:36:18.587305,0,913,0.0,0.0,24.0,24.0,98420898.0
2025-12-08T02:36:18.587305,0,914,0.0,0.0,24.0,24.0,98420898.0
2025-12-08T02:36:18.588350,0,915,0.0,0.0,24.0,24.0,98420898.0
2025-12-08T02:36:18.588350,0,916,0.0,0.0,24.0,24.0,98420898.0
2025-12-08T02:36:18.588350,0,917,0.0,0.0,24.0,24.0,98421875.0
2025-12-08T02:36:18.589359,0,918,0.0,0.0,24.0,24.0,98421875.0
2025-12-08T02:36:18.589359,0,919,0.0,0.0,24.0,24.0,98421875.0
2025-12-08T02:36:18.590358,0,920,0.0,0.0,24.0,24.0,98421875.0
2025-12-08T02:36:18.590358,0,921,0.0,0.0,24.0,24.0,98422851.0
2025-12-08T02:36:18.590358,0,922,0.0,0.0,24.0,24.0,98422851.0
2025-12-08T02:36:18.591351,0,923,0.0,0.0,24.0,24.0,98422851.0
2025-12-08T02:36:18.591351,0,924,0.0,0.0,24.0,24.0,98422851.0
2025-12-08T02:36:18.592351,0,925,0.0,0.0,24.0,24.0,98423828.0
2025-12-08T02:36:18.592351,0,926,0.0,0.0,24.0,24.0,98423828.0
2025-12-08T02:36:18.592351,0,927,0.0,0.0,24.0,24.0,98423828.0
2025-12-08T02:36:18.593352,0,928,0.0,0.0,24.0,24.0,98423828.0
2025-12-08T02:36:18.593352,0,929,0.0,0.0,24.0,24.0,98424804.0
2025-12-08T02:36:18.594360,0,930,0.0,0.0,24.0,24.0,98424804.0
2025-12-08T02:36:18.594360,0,931,0.0,0.0,24.0,24.0,98424804.0
2025-12-08T02:36:18.594360,0,932,0.0,0.0,24.0,24.0,98424804.0
2025-12-08T02:36:18.595359,0,933,0.0,0.0,24.0,24.0,98425781.0
2025-12-08T02:36:18.595359,0,934,0.0,0.0,24.0,24.0,98425781.0
2025-12-08T02:36:18.596352,0,935,0.0,0.0,24.0,24.0,98425781.0
2025-12-08T02:36:18.596352,0,936,0.0,0.0,24.0,24.0,98425781.0
2025-12-08T02:36:18.596352,0,937,0.0,0.0,24.0,24.0,98425781.0
2025-12-08T02:36:18.597351,0,938,0.0,0.0,24.0,24.0,98426757.0
2025-12-08T02:36:18.597351,0,939,0.0,0.0,24.0,24.0,98426757.0
2025-12-08T02:36:18.598354,0,940,0.0,0.0,24.0,24.0,98426757.0
2025-12-08T02:36:18.598354,0,941,0.0,0.0,24.0,24.0,98426757.0
2025-12-08T02:36:18.598354,0,942,0.0,0.0,24.0,24.0,98427734.0
2025-12-08T02:36:18.599355,0,943,0.0,0.0,24.0,24.0,98427734.0
2025-12-08T02:36:18.599355,0,944,0.0,0.0,24.0,24.0,98427734.0
2025-12-08T02:36:18.600355,0,945,0.0,0.0,24.0,24.0,98427734.0
2025-12-08T02:36:18.600355,0,946,0.0,0.0,24.0,24.0,98428710.0
2025-12-08T02:36:18.600355,0,947,0.0,0.0,24.0,24.0,98428710.0
2025-12-08T02:36:18.601358,0,948,0.0,0.0,24.0,24.0,98428710.0
2025-12-08T02:36:18.601358,0,949,0.0,0.0,24.0,24.0,98428710.0
2025-12-08T02:36:18.602351,0,950,0.0,0.0,24.0,24.0,98428710.0
2025-12-08T02:36:18.602351,0,951,0.0,0.0,24.0,24.0,98429687.0
2025-12-08T02:36:18.602351,0,952,0.0,0.0,24.0,24.0,98429687.0
2025-12-08T02:36:18.603350,0,953,0.0,0.0,24.0,24.0,98429687.0
2025-12-08T02:36:18.603350,0,954,0.0,0.0,24.0,24.0,98429687.0
2025-12-08T02:36:18.604417,0,955,0.0,0.0,24.0,24.0,98430664.0
2025-12-08T02:36:18.604417,0,956,0.0,0.0,24.0,24.0,98430664.0
2025-12-08T02:36:18.604417,0,957,0.0,0.0,24.0,24.0,98430664.0
2025-12-08T02:36:18.605533,0,958,0.0,0.0,24.0,24.0,98431640.0
2025-12-08T02:36:18.605533,0,959,0.0,0.0,24.0,24.0,98431640.0
2025-12-08T02:36:18.606631,0,960,0.0,0.0,24.0,24.0,98431640.0
2025-12-08T02:36:18.606631,0,961,0.0,0.0,24.0,24.0,98431640.0
2025-12-08T02:36:18.606631,0,962,0.0,0.0,24.0,24.0,98432617.0
2025-12-08T02:36:18.607632,0,963,0.0,0.0,24.0,24.0,98432617.0
2025-12-08T02:36:18.607632,0,964,0.0,0.0,24.0,24.0,98432617.0
2025-12-08T02:36:18.608642,0,965,0.0,0.0,24.0,24.0,98432617.0
2025-12-08T02:36:18.608642,0,966,0.0,0.0,24.0,24.0,98433593.0
2025-12-08T02:36:18.608642,0,967,0.0,0.0,24.0,24.0,98433593.0
2025-12-08T02:36:18.609628,0,968,0.0,0.0,24.0,24.0,98433593.0
2025-12-08T02:36:18.609628,0,969,0.0,0.0,24.0,24.0,98433593.0
2025-12-08T02:36:18.610633,0,970,0.0,0.0,24.0,24.0,98434570.0
2025-12-08T02:36:18.610633,0,971,0.0,0.0,24.0,24.0,98434570.0
2025-12-08T02:36:18.610633,0,972,0.0,0.0,24.0,24.0,98434570.0
2025-12-08T02:36:18.611623,0,973,0.0,0.0,24.0,24.0,98434570.0
2025-12-08T02:36:18.611623,0,974,0.0,0.0,24.0,24.0,98435546.0
2025-12-08T02:36:18.612632,0,975,0.0,0.0,24.0,24.0,98435546.0
2025-12-08T02:36:18.612632,0,976,0.0,0.0,24.0,24.0,98435546.0
2025-12-08T02:36:18.612632,0,977,0.0,0.0,24.0,24.0,98435546.0
2025-12-08T02:36:18.613629,0,978,0.0,0.0,24.0,24.0,98436523.0
2025-12-08T02:36:18.613629,0,979,0.0,0.0,24.0,24.0,98436523.0
2025-12-08T02:36:18.614628,0,980,0.0,0.0,24.0,24.0,98436523.0
2025-12-08T02:36:18.614628,0,981,0.0,0.0,24.0,24.0,98436523.0
2025-12-08T02:36:18.614628,0,982,0.0,0.0,24.0,24.0,98436523.0
2025-12-08T02:36:18.615622,0,983,0.0,0.0,24.0,24.0,98437500.0
2025-12-08T02:36:18.615622,0,984,0.0,0.0,24.0,24.0,98437500.0
2025-12-08T02:36:18.616629,0,985,0.0,0.0,24.0,24.0,98437500.0
2025-12-08T02:36:18.616629,0,986,0.0,0.0,24.0,24.0,98437500.0
2025-12-08T02:36:18.616629,0,987,0.0,0.0,24.0,24.0,98438476.0
2025-12-08T02:36:18.617630,0,988,0.0,0.0,24.0,24.0,98438476.0
2025-12-08T02:36:18.617630,0,989,0.0,0.0,24.0,24.0,98438476.0
2025-12-08T02:36:18.618631,0,990,0.0,0.0,24.0,24.0,98438476.0
2025-12-08T02:36:18.618631,0,991,0.0,0.0,24.0,24.0,98439453.0
2025-12-08T02:36:18.618631,0,992,0.0,0.0,24.0,24.0,98439453.0
2025-12-08T02:36:18.619635,0,993,0.0,0.0,24.0,24.0,98439453.0
2025-12-08T02:36:18.619635,0,994,0.0,0.0,24.0,24.0,98439453.0
2025-12-08T02:36:18.620636,0,995,0.0,0.0,24.0,24.0,98439453.0
2025-12-08T02:36:18.620816,0,996,0.0,0.0,24.0,24.0,98440429.0
2025-12-08T02:36:18.620816,0,997,0.0,0.0,24.0,24.0,98440429.0
2025-12-08T02:36:18.621873,0,998,0.0,0.0,24.0,24.0,98440429.0
2025-12-08T02:36:18.621873,0,999,0.0,0.0,24.0,24.0,98441406.0
2025-12-08T02:36:18.622862,0,1000,0.0,0.0,24.0,24.0,98441406.0
2025-12-08T02:36:18.622862,0,1001,0.0,0.0,24.0,24.0,98441406.0
2025-12-08T02:36:18.623871,0,1002,0.0,0.0,24.0,24.0,98441406.0
2025-12-08T02:36:18.623871,0,1003,0.0,0.0,24.0,24.0,98441406.0
2025-12-08T02:36:18.623871,0,1004,0.0,0.0,24.0,24.0,98442382.0
2025-12-08T02:36:18.624865,0,1005,0.0,0.0,24.0,24.0,98442382.0
2025-12-08T02:36:18.624865,0,1006,0.0,0.0,24.0,24.0,98442382.0
2025-12-08T02:36:18.625862,0,1007,0.0,0.0,24.0,24.0,98442382.0
2025-12-08T02:36:18.625862,0,1008,0.0,0.0,24.0,24.0,98443359.0
2025-12-08T02:36:18.625862,0,1009,0.0,0.0,24.0,24.0,98443359.0
2025-12-08T02:36:18.626862,0,1010,0.0,0.0,24.0,24.0,98443359.0
2025-12-08T02:36:18.626862,0,1011,0.0,0.0,24.0,24.0,98443359.0
2025-12-08T02:36:18.627875,0,1012,0.0,0.0,24.0,24.0,98444335.0
2025-12-08T02:36:18.627875,0,1013,0.0,0.0,24.0,24.0,98444335.0
2025-12-08T02:36:18.627875,0,1014,0.0,0.0,24.0,24.0,98444335.0
2025-12-08T02:36:18.628871,0,1015,0.0,0.0,24.0,24.0,98444335.0
2025-12-08T02:36:18.628871,0,1016,0.0,0.0,24.0,24.0,98445312.0
2025-12-08T02:36:18.629879,0,1017,0.0,0.0,24.0,24.0,98445312.0
2025-12-08T02:36:18.629879,0,1018,0.0,0.0,24.0,24.0,98445312.0
2025-12-08T02:36:18.630868,0,1019,0.0,0.0,24.0,24.0,98445312.0
2025-12-08T02:36:18.630868,0,1020,0.0,0.0,24.0,24.0,98446289.0
2025-12-08T02:36:18.630868,0,1021,0.0,0.0,24.0,24.0,98446289.0
2025-12-08T02:36:18.631869,0,1022,0.0,0.0,24.0,24.0,98446289.0
2025-12-08T02:36:18.631869,0,1023,0.0,0.0,24.0,24.0,98446289.0
2025-12-08T02:36:18.632871,0,1024,0.0,0.0,24.0,24.0,98447265.0
2025-12-08T02:36:18.632871,0,1025,0.0,0.0,24.0,24.0,98447265.0
2025-12-08T02:36:18.632871,0,1026,0.0,0.0,24.0,24.0,98447265.0
2025-12-08T02:36:18.633874,0,1027,0.0,0.0,24.0,24.0,98447265.0
2025-12-08T02:36:18.633874,0,1028,0.0,0.0,24.0,24.0,98448242.0
2025-12-08T02:36:18.634868,0,1029,0.0,0.0,24.0,24.0,98448242.0
2025-12-08T02:36:18.634868,0,1030,0.0,0.0,24.0,24.0,98448242.0
2025-12-08T02:36:18.634868,0,1031,0.0,0.0,24.0,24.0,98448242.0
2025-12-08T02:36:18.635869,0,1032,0.0,0.0,24.0,24.0,98449218.0
2025-12-08T02:36:18.635869,0,1033,0.0,0.0,24.0,24.0,98449218.0
2025-12-08T02:36:18.636941,0,1034,0.0,0.0,24.0,24.0,98449218.0
2025-12-08T02:36:18.636941,0,1035,0.0,0.0,24.0,24.0,98449218.0
2025-12-08T02:36:18.636941,0,1036,0.0,0.0,24.0,24.0,98450195.0
2025-12-08T02:36:18.637993,0,1037,0.0,0.0,24.0,24.0,98450195.0
2025-12-08T02:36:18.637993,0,1038,0.0,0.0,24.0,24.0,98450195.0
2025-12-08T02:36:18.638986,0,1039,0.0,0.0,24.0,24.0,98450195.0
2025-12-08T02:36:18.638986,0,1040,0.0,0.0,24.0,24.0,98450195.0
2025-12-08T02:36:18.639991,0,1041,0.0,0.0,24.0,24.0,98451171.0
2025-12-08T02:36:18.639991,0,1042,0.0,0.0,24.0,24.0,98451171.0
2025-12-08T02:36:18.639991,0,1043,0.0,0.0,24.0,24.0,98451171.0
2025-12-08T02:36:18.640986,0,1044,0.0,0.0,24.0,24.0,98451171.0
2025-12-08T02:36:18.640986,0,1045,0.0,0.0,24.0,24.0,98452148.0
2025-12-08T02:36:18.641997,0,1046,0.0,0.0,24.0,24.0,98452148.0
2025-12-08T02:36:18.641997,0,1047,0.0,0.0,24.0,24.0,98452148.0
2025-12-08T02:36:18.642990,0,1048,0.0,0.0,24.0,24.0,98452148.0
2025-12-08T02:36:18.642990,0,1049,0.0,0.0,24.0,24.0,98453125.0
2025-12-08T02:36:18.642990,0,1050,0.0,0.0,24.0,24.0,98453125.0
2025-12-08T02:36:18.643999,0,1051,0.0,0.0,24.0,24.0,98453125.0
2025-12-08T02:36:18.643999,0,1052,0.0,0.0,24.0,24.0,98453125.0
2025-12-08T02:36:18.644991,0,1053,0.0,0.0,24.0,24.0,98454101.0
2025-12-08T02:36:18.644991,0,1054,0.0,0.0,24.0,24.0,98454101.0
2025-12-08T02:36:18.644991,0,1055,0.0,0.0,24.0,24.0,98454101.0
2025-12-08T02:36:18.645993,0,1056,0.0,0.0,24.0,24.0,98454101.0
2025-12-08T02:36:18.645993,0,1057,0.0,0.0,24.0,24.0,98455078.0
2025-12-08T02:36:18.646995,0,1058,0.0,0.0,24.0,24.0,98455078.0
2025-12-08T02:36:18.646995,0,1059,0.0,0.0,24.0,24.0,98455078.0
2025-12-08T02:36:18.646995,0,1060,0.0,0.0,24.0,24.0,98455078.0
2025-12-08T02:36:18.647994,0,1061,0.0,0.0,24.0,24.0,98455078.0
2025-12-08T02:36:18.647994,0,1062,0.0,0.0,24.0,24.0,98456054.0
2025-12-08T02:36:18.648989,0,1063,0.0,0.0,24.0,24.0,98456054.0
2025-12-08T02:36:18.648989,0,1064,0.0,0.0,24.0,24.0,98456054.0
2025-12-08T02:36:18.649988,0,1065,0.0,0.0,24.0,24.0,98457031.0
2025-12-08T02:36:18.649988,0,1066,0.0,0.0,24.0,24.0,98457031.0
2025-12-08T02:36:18.649988,0,1067,0.0,0.0,24.0,24.0,98457031.0
2025-12-08T02:36:18.650990,0,1068,0.0,0.0,24.0,24.0,98457031.0
2025-12-08T02:36:18.650990,0,1069,0.0,0.0,24.0,24.0,98458007.0
2025-12-08T02:36:18.651993,0,1070,0.0,0.0,24.0,24.0,98458007.0
2025-12-08T02:36:18.652999,0,1071,0.0,0.0,24.0,24.0,98458007.0
2025-12-08T02:36:18.652999,0,1072,0.0,0.0,24.0,24.0,98458007.0
2025-12-08T02:36:18.652999,0,1073,0.0,0.0,24.0,24.0,98458984.0
2025-12-08T02:36:18.653948,0,1074,0.0,0.0,24.0,24.0,98458984.0
2025-12-08T02:36:18.653948,0,1075,0.0,0.0,24.0,24.0,98458984.0
2025-12-08T02:36:18.654943,0,1076,0.0,0.0,24.0,24.0,98458984.0
2025-12-08T02:36:18.654943,0,1077,0.0,0.0,24.0,24.0,98459960.0
2025-12-08T02:36:18.655943,0,1078,0.0,0.0,24.0,24.0,98459960.0
2025-12-08T02:36:18.655943,0,1079,0.0,0.0,24.0,24.0,98459960.0
2025-12-08T02:36:18.655943,0,1080,0.0,0.0,24.0,24.0,98459960.0
2025-12-08T02:36:18.656943,0,1081,0.0,0.0,24.0,24.0,98460937.0
2025-12-08T02:36:18.656943,0,1082,0.0,0.0,24.0,24.0,98460937.0
2025-12-08T02:36:18.657943,0,1083,0.0,0.0,24.0,24.0,98460937.0
2025-12-08T02:36:18.657943,0,1084,0.0,0.0,24.0,24.0,98460937.0
2025-12-08T02:36:18.657943,0,1085,0.0,0.0,24.0,24.0,98460937.0
2025-12-08T02:36:18.658943,0,1086,0.0,0.0,24.0,24.0,98461914.0
2025-12-08T02:36:18.658943,0,1087,0.0,0.0,24.0,24.0,98461914.0
2025-12-08T02:36:18.659943,0,1088,0.0,0.0,24.0,24.0,98461914.0
2025-12-08T02:36:18.659943,0,1089,0.0,0.0,24.0,24.0,98461914.0
2025-12-08T02:36:18.659943,0,1090,0.0,0.0,24.0,24.0,98462890.0
2025-12-08T02:36:18.660943,0,1091,0.0,0.0,24.0,24.0,98462890.0
2025-12-08T02:36:18.660943,0,1092,0.0,0.0,24.0,24.0,98462890.0
2025-12-08T02:36:18.661943,0,1093,0.0,0.0,24.0,24.0,98462890.0
2025-12-08T02:36:18.661943,0,1094,0.0,0.0,24.0,24.0,98463867.0
2025-12-08T02:36:18.662946,0,1095,0.0,0.0,24.0,24.0,98463867.0
2025-12-08T02:36:18.662946,0,1096,0.0,0.0,24.0,24.0,98463867.0
2025-12-08T02:36:18.662946,0,1097,0.0,0.0,24.0,24.0,98463867.0
2025-12-08T02:36:18.663946,0,1098,0.0,0.0,24.0,24.0,98463867.0
2025-12-08T02:36:18.663946,0,1099,0.0,0.0,24.0,24.0,98464843.0
2025-12-08T02:36:18.664946,0,1100,0.0,0.0,24.0,24.0,98464843.0
2025-12-08T02:36:18.664946,0,1101,0.0,0.0,24.0,24.0,98464843.0
2025-12-08T02:36:18.664946,0,1102,0.0,0.0,24.0,24.0,98464843.0
2025-12-08T02:36:18.665946,0,1103,0.0,0.0,24.0,24.0,98465820.0
2025-12-08T02:36:18.665946,0,1104,0.0,0.0,24.0,24.0,98465820.0
2025-12-08T02:36:18.666945,0,1105,0.0,0.0,24.0,24.0,98465820.0
2025-12-08T02:36:18.666945,0,1106,0.0,0.0,24.0,24.0,98465820.0
2025-12-08T02:36:18.667945,0,1107,0.0,0.0,24.0,24.0,98466796.0
2025-12-08T02:36:18.667945,0,1108,0.0,0.0,24.0,24.0,98466796.0
2025-12-08T02:36:18.667945,0,1109,0.0,0.0,24.0,24.0,98466796.0
2025-12-08T02:36:18.668946,0,1110,0.0,0.0,24.0,24.0,98466796.0
2025-12-08T02:36:18.668946,0,1111,0.0,0.0,24.0,24.0,98467773.0
2025-12-08T02:36:18.669946,0,1112,0.0,0.0,24.0,24.0,98467773.0
2025-12-08T02:36:18.669946,0,1113,0.0,0.0,24.0,24.0,98467773.0
2025-12-08T02:36:18.669946,0,1114,0.0,0.0,24.0,24.0,98467773.0
2025-12-08T02:36:18.671102,0,1115,0.0,0.0,24.0,24.0,98467773.0
2025-12-08T02:36:18.671102,0,1116,0.0,0.0,24.0,24.0,98468750.0
2025-12-08T02:36:18.672112,0,1117,0.0,0.0,24.0,24.0,98468750.0
2025-12-08T02:36:18.672112,0,1118,0.0,0.0,24.0,24.0,98468750.0
2025-12-08T02:36:18.672112,0,1119,0.0,0.0,24.0,24.0,98468750.0
2025-12-08T02:36:18.673110,0,1120,0.0,0.0,24.0,24.0,98469726.0
2025-12-08T02:36:18.673110,0,1121,0.0,0.0,24.0,24.0,98469726.0
2025-12-08T02:36:18.674110,0,1122,0.0,0.0,24.0,24.0,98469726.0
2025-12-08T02:36:18.674110,0,1123,0.0,0.0,24.0,24.0,98469726.0
2025-12-08T02:36:18.674110,0,1124,0.0,0.0,24.0,24.0,98469726.0
2025-12-08T02:36:18.675109,0,1125,0.0,0.0,24.0,24.0,98470703.0
2025-12-08T02:36:18.675109,0,1126,0.0,0.0,24.0,24.0,98470703.0
2025-12-08T02:36:18.676110,0,1127,0.0,0.0,24.0,24.0,98470703.0
2025-12-08T02:36:18.676110,0,1128,0.0,0.0,24.0,24.0,98470703.0
2025-12-08T02:36:18.676110,0,1129,0.0,0.0,24.0,24.0,98471679.0
2025-12-08T02:36:18.677110,0,1130,0.0,0.0,24.0,24.0,98471679.0
2025-12-08T02:36:18.677110,0,1131,0.0,0.0,24.0,24.0,98471679.0
2025-12-08T02:36:18.678110,0,1132,0.0,0.0,24.0,24.0,98471679.0
2025-12-08T02:36:18.678110,0,1133,0.0,0.0,24.0,24.0,98471679.0
2025-12-08T02:36:18.678110,0,1134,0.0,0.0,24.0,24.0,98472656.0
2025-12-08T02:36:18.679111,0,1135,0.0,0.0,24.0,24.0,98472656.0
2025-12-08T02:36:18.679111,0,1136,0.0,0.0,24.0,24.0,98472656.0
2025-12-08T02:36:18.680105,0,1137,0.0,0.0,24.0,24.0,98472656.0
2025-12-08T02:36:18.680105,0,1138,0.0,0.0,24.0,24.0,98473632.0
2025-12-08T02:36:18.681110,0,1139,0.0,0.0,24.0,24.0,98473632.0
2025-12-08T02:36:18.681110,0,1140,0.0,0.0,24.0,24.0,98473632.0
2025-12-08T02:36:18.681110,0,1141,0.0,0.0,24.0,24.0,98473632.0
2025-12-08T02:36:18.682110,0,1142,0.0,0.0,24.0,24.0,98473632.0
2025-12-08T02:36:18.682110,0,1143,0.0,0.0,24.0,24.0,98474609.0
2025-12-08T02:36:18.683401,0,1144,0.0,0.0,24.0,24.0,98474609.0
2025-12-08T02:36:18.683892,0,1145,0.0,0.0,24.0,24.0,98474609.0
2025-12-08T02:36:18.683892,0,1146,0.0,0.0,24.0,24.0,98474609.0
2025-12-08T02:36:18.684985,0,1147,0.0,0.0,24.0,24.0,98475585.0
2025-12-08T02:36:18.684985,0,1148,0.0,0.0,24.0,24.0,98475585.0
2025-12-08T02:36:18.685950,0,1149,0.0,0.0,24.0,24.0,98475585.0
2025-12-08T02:36:18.685950,0,1150,0.0,0.0,24.0,24.0,98475585.0
2025-12-08T02:36:18.686958,0,1151,0.0,0.0,24.0,24.0,98476562.0
2025-12-08T02:36:18.686958,0,1152,0.0,0.0,24.0,24.0,98476562.0
2025-12-08T02:36:18.688031,0,1153,0.0,0.0,24.0,24.0,98476562.0
2025-12-08T02:36:18.688031,0,1154,0.0,0.0,24.0,24.0,98476562.0
2025-12-08T02:36:18.689083,0,1155,0.0,0.0,24.0,24.0,98476562.0
2025-12-08T02:36:18.689083,0,1156,0.0,0.0,24.0,24.0,98477539.0
2025-12-08T02:36:18.690088,0,1157,0.0,0.0,24.0,24.0,98477539.0
2025-12-08T02:36:18.690088,0,1158,0.0,0.0,24.0,24.0,98477539.0
2025-12-08T02:36:18.691082,0,1159,0.0,0.0,24.0,24.0,98477539.0
2025-12-08T02:36:18.691082,0,1160,0.0,0.0,24.0,24.0,98478515.0
2025-12-08T02:36:18.692033,0,1161,0.0,0.0,24.0,24.0,98478515.0
2025-12-08T02:36:18.692033,0,1162,0.0,0.0,24.0,24.0,98478515.0
2025-12-08T02:36:18.693032,0,1163,0.0,0.0,24.0,24.0,98478515.0
2025-12-08T02:36:18.693032,0,1164,0.0,0.0,24.0,24.0,98479492.0
2025-12-08T02:36:18.694032,0,1165,0.0,0.0,24.0,24.0,98479492.0
2025-12-08T02:36:18.694032,0,1166,0.0,0.0,24.0,24.0,98479492.0
2025-12-08T02:36:18.695032,0,1167,0.0,0.0,24.0,24.0,98479492.0
2025-12-08T02:36:18.695032,0,1168,0.0,0.0,24.0,24.0,98480468.0
2025-12-08T02:36:18.696034,0,1169,0.0,0.0,24.0,24.0,98480468.0
2025-12-08T02:36:18.697033,0,1170,0.0,0.0,24.0,24.0,98480468.0
2025-12-08T02:36:18.697033,0,1171,0.0,0.0,24.0,24.0,98480468.0
2025-12-08T02:36:18.698032,0,1172,0.0,0.0,24.0,24.0,98480468.0
2025-12-08T02:36:18.698032,0,1173,0.0,0.0,24.0,24.0,98481445.0
2025-12-08T02:36:18.698032,0,1174,0.0,0.0,24.0,24.0,98481445.0
2025-12-08T02:36:18.699730,0,1175,0.0,0.0,24.0,24.0,98481445.0
2025-12-08T02:36:18.699730,0,1176,0.0,0.0,24.0,24.0,98481445.0
2025-12-08T02:36:18.699730,0,1177,0.0,0.0,24.0,24.0,98481445.0
2025-12-08T02:36:18.700744,0,1178,0.0,0.0,24.0,24.0,98482421.0
2025-12-08T02:36:18.700744,0,1179,0.0,0.0,24.0,24.0,98482421.0
2025-12-08T02:36:18.701744,0,1180,0.0,0.0,24.0,24.0,98482421.0
2025-12-08T02:36:18.701744,0,1181,0.0,0.0,24.0,24.0,98482421.0
2025-12-08T02:36:18.702487,0,1182,0.0,0.0,24.0,24.0,98482421.0
2025-12-08T02:36:18.702994,0,1183,0.0,0.0,24.0,24.0,98483398.0
2025-12-08T02:36:18.702994,0,1184,0.0,0.0,24.0,24.0,98483398.0
2025-12-08T02:36:18.702994,0,1185,0.0,0.0,24.0,24.0,98483398.0
2025-12-08T02:36:18.704001,0,1186,0.0,0.0,24.0,24.0,98483398.0
2025-12-08T02:36:18.704001,0,1187,0.0,0.0,24.0,24.0,98484375.0
2025-12-08T02:36:18.705001,0,1188,0.0,0.0,24.0,24.0,98484375.0
2025-12-08T02:36:18.705643,0,1189,0.0,0.0,24.0,24.0,98484375.0
2025-12-08T02:36:18.705643,0,1190,0.0,0.0,24.0,24.0,98484375.0
2025-12-08T02:36:18.706150,0,1191,0.0,0.0,24.0,24.0,98484375.0
2025-12-08T02:36:18.706150,0,1192,0.0,0.0,24.0,24.0,98485351.0
2025-12-08T02:36:18.707157,0,1193,0.0,0.0,24.0,24.0,98485351.0
2025-12-08T02:36:18.707157,0,1194,0.0,0.0,24.0,24.0,98485351.0
2025-12-08T02:36:18.708157,0,1195,0.0,0.0,24.0,24.0,98485351.0
2025-12-08T02:36:18.708157,0,1196,0.0,0.0,24.0,24.0,98486328.0
2025-12-08T02:36:18.708157,0,1197,0.0,0.0,24.0,24.0,98486328.0
2025-12-08T02:36:18.709157,0,1198,0.0,0.0,24.0,24.0,98486328.0
2025-12-08T02:36:18.709157,0,1199,0.0,0.0,24.0,24.0,98486328.0
2025-12-08T02:36:18.710157,0,1200,0.0,0.0,24.0,24.0,98487304.0
2025-12-08T02:36:18.710157,0,1201,0.0,0.0,24.0,24.0,98487304.0
2025-12-08T02:36:18.711157,0,1202,0.0,0.0,24.0,24.0,98487304.0
2025-12-08T02:36:18.711157,0,1203,0.0,0.0,24.0,24.0,98487304.0
2025-12-08T02:36:18.711157,0,1204,0.0,0.0,24.0,24.0,98488281.0
2025-12-08T02:36:18.712157,0,1205,0.0,0.0,24.0,24.0,98488281.0
2025-12-08T02:36:18.713159,0,1206,0.0,0.0,24.0,24.0,98488281.0
2025-12-08T02:36:18.713159,0,1207,0.0,0.0,24.0,24.0,98488281.0
2025-12-08T02:36:18.713159,0,1208,0.0,0.0,24.0,24.0,98488281.0
2025-12-08T02:36:18.714157,0,1209,0.0,0.0,24.0,24.0,98489257.0
2025-12-08T02:36:18.714157,0,1210,0.0,0.0,24.0,24.0,98489257.0
2025-12-08T02:36:18.715158,0,1211,0.0,0.0,24.0,24.0,98489257.0
2025-12-08T02:36:18.715158,0,1212,0.0,0.0,24.0,24.0,98489257.0
2025-12-08T02:36:18.716158,0,1213,0.0,0.0,24.0,24.0,98490234.0
2025-12-08T02:36:18.716158,0,1214,0.0,0.0,24.0,24.0,98490234.0
2025-12-08T02:36:18.717157,0,1215,0.0,0.0,24.0,24.0,98490234.0
2025-12-08T02:36:18.717157,0,1216,0.0,0.0,24.0,24.0,98490234.0
2025-12-08T02:36:18.717157,0,1217,0.0,0.0,24.0,24.0,98490234.0
2025-12-08T02:36:18.718157,0,1218,0.0,0.0,24.0,24.0,98491210.0
2025-12-08T02:36:18.718157,0,1219,0.0,0.0,24.0,24.0,98491210.0
2025-12-08T02:36:18.719157,0,1220,0.0,0.0,24.0,24.0,98491210.0
2025-12-08T02:36:18.719157,0,1221,0.0,0.0,24.0,24.0,98491210.0
2025-12-08T02:36:18.720157,0,1222,0.0,0.0,24.0,24.0,98491210.0
2025-12-08T02:36:18.720232,0,1223,0.0,0.0,24.0,24.0,98492187.0
2025-12-08T02:36:18.720232,0,1224,0.0,0.0,24.0,24.0,98492187.0
2025-12-08T02:36:18.721291,0,1225,0.0,0.0,24.0,24.0,98492187.0
2025-12-08T02:36:18.721291,0,1226,0.0,0.0,24.0,24.0,98492187.0
2025-12-08T02:36:18.721291,0,1227,0.0,0.0,24.0,24.0,98493164.0
2025-12-08T02:36:18.722282,0,1228,0.0,0.0,24.0,24.0,98493164.0
2025-12-08T02:36:18.722282,0,1229,0.0,0.0,24.0,24.0,98493164.0
2025-12-08T02:36:18.723290,0,1230,0.0,0.0,24.0,24.0,98493164.0
2025-12-08T02:36:18.723290,0,1231,0.0,0.0,24.0,24.0,98494140.0
2025-12-08T02:36:18.724286,0,1232,0.0,0.0,24.0,24.0,98494140.0
2025-12-08T02:36:18.724286,0,1233,0.0,0.0,24.0,24.0,98494140.0
2025-12-08T02:36:18.724286,0,1234,0.0,0.0,24.0,24.0,98494140.0
2025-12-08T02:36:18.725286,0,1235,0.0,0.0,24.0,24.0,98494140.0
2025-12-08T02:36:18.725286,0,1236,0.0,0.0,24.0,24.0,98495117.0
2025-12-08T02:36:18.726281,0,1237,0.0,0.0,24.0,24.0,98495117.0
2025-12-08T02:36:18.726281,0,1238,0.0,0.0,24.0,24.0,98495117.0
2025-12-08T02:36:18.726281,0,1239,0.0,0.0,24.0,24.0,98495117.0
2025-12-08T02:36:18.727280,0,1240,0.0,0.0,24.0,24.0,98496093.0
2025-12-08T02:36:18.727280,0,1241,0.0,0.0,24.0,24.0,98496093.0
2025-12-08T02:36:18.728292,0,1242,0.0,0.0,24.0,24.0,98496093.0
2025-12-08T02:36:18.728292,0,1243,0.0,0.0,24.0,24.0,98496093.0
2025-12-08T02:36:18.729235,0,1244,0.0,0.0,24.0,24.0,98497070.0
2025-12-08T02:36:18.729235,0,1245,0.0,0.0,24.0,24.0,98497070.0
2025-12-08T02:36:18.729235,0,1246,0.0,0.0,24.0,24.0,98497070.0
2025-12-08T02:36:18.730853,0,1247,0.0,0.0,24.0,24.0,98497070.0
2025-12-08T02:36:18.730853,0,1248,0.0,0.0,24.0,24.0,98497070.0
2025-12-08T02:36:18.730853,0,1249,0.0,0.0,24.0,24.0,98498046.0
2025-12-08T02:36:18.732131,0,1250,0.0,0.0,24.0,24.0,98498046.0
2025-12-08T02:36:18.732131,0,1251,0.0,0.0,24.0,24.0,98498046.0
2025-12-08T02:36:18.733140,0,1252,0.0,0.0,24.0,24.0,98498046.0
2025-12-08T02:36:18.733140,0,1253,0.0,0.0,24.0,24.0,98499023.0
2025-12-08T02:36:18.733140,0,1254,0.0,0.0,24.0,24.0,98499023.0
2025-12-08T02:36:18.734144,0,1255,0.0,0.0,24.0,24.0,98499023.0
2025-12-08T02:36:18.734144,0,1256,0.0,0.0,24.0,24.0,98499023.0
2025-12-08T02:36:18.735145,0,1257,0.0,0.0,24.0,24.0,98499023.0
2025-12-08T02:36:18.735145,0,1258,0.0,0.0,24.0,24.0,98500000.0
2025-12-08T02:36:18.736149,0,1259,0.0,0.0,24.0,24.0,98500000.0
2025-12-08T02:36:18.736149,0,1260,0.0,0.0,24.0,24.0,98500000.0
2025-12-08T02:36:18.736149,0,1261,0.0,0.0,24.0,24.0,98500000.0
2025-12-08T02:36:18.737143,0,1262,0.0,0.0,24.0,24.0,98500000.0
2025-12-08T02:36:18.737143,0,1263,0.0,0.0,24.0,24.0,98500976.0
2025-12-08T02:36:18.738215,0,1264,0.0,0.0,24.0,24.0,98500976.0
2025-12-08T02:36:18.738215,0,1265,0.0,0.0,24.0,24.0,98500976.0
2025-12-08T02:36:18.738215,0,1266,0.0,0.0,24.0,24.0,98500976.0
2025-12-08T02:36:18.739277,0,1267,0.0,0.0,24.0,24.0,98501953.0
2025-12-08T02:36:18.739277,0,1268,0.0,0.0,24.0,24.0,98501953.0
2025-12-08T02:36:18.740271,0,1269,0.0,0.0,24.0,24.0,98501953.0
2025-12-08T02:36:18.740271,0,1270,0.0,0.0,24.0,24.0,98501953.0
2025-12-08T02:36:18.740271,0,1271,0.0,0.0,24.0,24.0,98502929.0
2025-12-08T02:36:18.741273,0,1272,0.0,0.0,24.0,24.0,98502929.0
2025-12-08T02:36:18.741273,0,1273,0.0,0.0,24.0,24.0,98502929.0
2025-12-08T02:36:18.742272,0,1274,0.0,0.0,24.0,24.0,98502929.0
2025-12-08T02:36:18.742272,0,1275,0.0,0.0,24.0,24.0,98502929.0
2025-12-08T02:36:18.743274,0,1276,0.0,0.0,24.0,24.0,98503906.0
2025-12-08T02:36:18.743274,0,1277,0.0,0.0,24.0,24.0,98503906.0
2025-12-08T02:36:18.744264,0,1278,0.0,0.0,24.0,24.0,98503906.0
2025-12-08T02:36:18.744264,0,1279,0.0,0.0,24.0,24.0,98503906.0
2025-12-08T02:36:18.745264,0,1280,0.0,0.0,24.0,24.0,98504882.0
2025-12-08T02:36:18.746196,0,1281,0.0,0.0,24.0,24.0,98504882.0
2025-12-08T02:36:18.746356,0,1282,0.0,0.0,24.0,24.0,98504882.0
2025-12-08T02:36:18.746356,0,1283,0.0,0.0,24.0,24.0,98504882.0
2025-12-08T02:36:18.747374,0,1284,0.0,0.0,24.0,24.0,98504882.0
2025-12-08T02:36:18.747374,0,1285,0.0,0.0,24.0,24.0,98505859.0
2025-12-08T02:36:18.748419,0,1286,0.0,0.0,24.0,24.0,98505859.0
2025-12-08T02:36:18.748419,0,1287,0.0,0.0,24.0,24.0,98505859.0
2025-12-08T02:36:18.749430,0,1288,0.0,0.0,24.0,24.0,98505859.0
2025-12-08T02:36:18.749430,0,1289,0.0,0.0,24.0,24.0,98506835.0
2025-12-08T02:36:18.750421,0,1290,0.0,0.0,24.0,24.0,98506835.0
2025-12-08T02:36:18.750421,0,1291,0.0,0.0,24.0,24.0,98506835.0
2025-12-08T02:36:18.751375,0,1292,0.0,0.0,24.0,24.0,98506835.0
2025-12-08T02:36:18.751375,0,1293,0.0,0.0,24.0,24.0,98507812.0
2025-12-08T02:36:18.752418,0,1294,0.0,0.0,24.0,24.0,98507812.0
2025-12-08T02:36:18.752418,0,1295,0.0,0.0,24.0,24.0,98507812.0
2025-12-08T02:36:18.753421,0,1296,0.0,0.0,24.0,24.0,98507812.0
2025-12-08T02:36:18.754416,0,1297,0.0,0.0,24.0,24.0,98507812.0
2025-12-08T02:36:18.754491,0,1298,0.0,0.0,24.0,24.0,98508789.0
2025-12-08T02:36:18.754491,0,1299,0.0,0.0,24.0,24.0,98508789.0
2025-12-08T02:36:18.755537,0,1300,0.0,0.0,24.0,24.0,98508789.0
2025-12-08T02:36:18.755537,0,1301,0.0,0.0,24.0,24.0,98508789.0
2025-12-08T02:36:18.756543,0,1302,0.0,0.0,24.0,24.0,98509765.0
2025-12-08T02:36:18.756543,0,1303,0.0,0.0,24.0,24.0,98509765.0
2025-12-08T02:36:18.757537,0,1304,0.0,0.0,24.0,24.0,98509765.0
2025-12-08T02:36:18.757537,0,1305,0.0,0.0,24.0,24.0,98510742.0
2025-12-08T02:36:18.758544,0,1306,0.0,0.0,24.0,24.0,98510742.0
2025-12-08T02:36:18.758544,0,1307,0.0,0.0,24.0,24.0,98510742.0
2025-12-08T02:36:18.759542,0,1308,0.0,0.0,24.0,24.0,98510742.0
2025-12-08T02:36:18.759542,0,1309,0.0,0.0,24.0,24.0,98510742.0
2025-12-08T02:36:18.760765,0,1310,0.0,0.0,24.0,24.0,98511718.0
2025-12-08T02:36:18.761278,0,1311,0.0,0.0,24.0,24.0,98511718.0
2025-12-08T02:36:18.761278,0,1312,0.0,0.0,24.0,24.0,98511718.0
2025-12-08T02:36:18.762297,0,1313,0.0,0.0,24.0,24.0,98511718.0
2025-12-08T02:36:18.762297,0,1314,0.0,0.0,24.0,24.0,98512695.0
2025-12-08T02:36:18.763342,0,1315,0.0,0.0,24.0,24.0,98512695.0
2025-12-08T02:36:18.763342,0,1316,0.0,0.0,24.0,24.0,98512695.0
2025-12-08T02:36:18.764346,0,1317,0.0,0.0,24.0,24.0,98512695.0
2025-12-08T02:36:18.764346,0,1318,0.0,0.0,24.0,24.0,98513671.0
2025-12-08T02:36:18.764346,0,1319,0.0,0.0,24.0,24.0,98513671.0
2025-12-08T02:36:18.765346,0,1320,0.0,0.0,24.0,24.0,98513671.0
2025-12-08T02:36:18.765346,0,1321,0.0,0.0,24.0,24.0,98513671.0
2025-12-08T02:36:18.766343,0,1322,0.0,0.0,24.0,24.0,98513671.0
2025-12-08T02:36:18.766343,0,1323,0.0,0.0,24.0,24.0,98514648.0
2025-12-08T02:36:18.767340,0,1324,0.0,0.0,24.0,24.0,98514648.0
2025-12-08T02:36:18.767340,0,1325,0.0,0.0,24.0,24.0,98514648.0
2025-12-08T02:36:18.767340,0,1326,0.0,0.0,24.0,24.0,98514648.0
2025-12-08T02:36:18.768351,0,1327,0.0,0.0,24.0,24.0,98514648.0
2025-12-08T02:36:18.768351,0,1328,0.0,0.0,24.0,24.0,98515625.0
2025-12-08T02:36:18.769293,0,1329,0.0,0.0,24.0,24.0,98515625.0
2025-12-08T02:36:18.769293,0,1330,0.0,0.0,24.0,24.0,98515625.0
2025-12-08T02:36:18.770293,0,1331,0.0,0.0,24.0,24.0,98515625.0
2025-12-08T02:36:18.771426,0,1332,0.0,0.0,24.0,24.0,98516601.0
2025-12-08T02:36:18.771426,0,1333,0.0,0.0,24.0,24.0,98516601.0
2025-12-08T02:36:18.771426,0,1334,0.0,0.0,24.0,24.0,98516601.0
2025-12-08T02:36:18.772476,0,1335,0.0,0.0,24.0,24.0,98516601.0
2025-12-08T02:36:18.772476,0,1336,0.0,0.0,24.0,24.0,98517578.0
2025-12-08T02:36:18.773480,0,1337,0.0,0.0,24.0,24.0,98517578.0
2025-12-08T02:36:18.773480,0,1338,0.0,0.0,24.0,24.0,98517578.0
2025-12-08T02:36:18.774478,0,1339,0.0,0.0,24.0,24.0,98517578.0
2025-12-08T02:36:18.774478,0,1340,0.0,0.0,24.0,24.0,98517578.0
2025-12-08T02:36:18.774478,0,1341,0.0,0.0,24.0,24.0,98517578.0
2025-12-08T02:36:18.775480,0,1342,0.0,0.0,24.0,24.0,98518554.0
2025-12-08T02:36:18.775480,0,1343,0.0,0.0,24.0,24.0,98518554.0
2025-12-08T02:36:18.776481,0,1344,0.0,0.0,24.0,24.0,98518554.0
2025-12-08T02:36:18.776481,0,1345,0.0,0.0,24.0,24.0,98518554.0
2025-12-08T02:36:18.777434,0,1346,0.0,0.0,24.0,24.0,98519531.0
2025-12-08T02:36:18.777434,0,1347,0.0,0.0,24.0,24.0,98519531.0
2025-12-08T02:36:18.778432,0,1348,0.0,0.0,24.0,24.0,98519531.0
2025-12-08T02:36:18.778432,0,1349,0.0,0.0,24.0,24.0,98519531.0
2025-12-08T02:36:18.779433,0,1350,0.0,0.0,24.0,24.0,98520507.0
2025-12-08T02:36:18.779433,0,1351,0.0,0.0,24.0,24.0,98520507.0
2025-12-08T02:36:18.780485,0,1352,0.0,0.0,24.0,24.0,98520507.0
2025-12-08T02:36:18.780485,0,1353,0.0,0.0,24.0,24.0,98520507.0
2025-12-08T02:36:18.781474,0,1354,0.0,0.0,24.0,24.0,98520507.0
2025-12-08T02:36:18.781474,0,1355,0.0,0.0,24.0,24.0,98521484.0
2025-12-08T02:36:18.782468,0,1356,0.0,0.0,24.0,24.0,98521484.0
2025-12-08T02:36:18.782468,0,1357,0.0,0.0,24.0,24.0,98521484.0
2025-12-08T02:36:18.782468,0,1358,0.0,0.0,24.0,24.0,98521484.0
2025-12-08T02:36:18.783479,0,1359,0.0,0.0,24.0,24.0,98522460.0
2025-12-08T02:36:18.783479,0,1360,0.0,0.0,24.0,24.0,98522460.0
2025-12-08T02:36:18.784475,0,1361,0.0,0.0,24.0,24.0,98522460.0
2025-12-08T02:36:18.784475,0,1362,0.0,0.0,24.0,24.0,98522460.0
2025-12-08T02:36:18.785474,0,1363,0.0,0.0,24.0,24.0,98523437.0
2025-12-08T02:36:18.785474,0,1364,0.0,0.0,24.0,24.0,98523437.0
2025-12-08T02:36:18.786467,0,1365,0.0,0.0,24.0,24.0,98523437.0
2025-12-08T02:36:18.786467,0,1366,0.0,0.0,24.0,24.0,98523437.0
2025-12-08T02:36:18.786467,0,1367,0.0,0.0,24.0,24.0,98523437.0
2025-12-08T02:36:18.787647,0,1368,0.0,0.0,24.0,24.0,98524414.0
2025-12-08T02:36:18.787647,0,1369,0.0,0.0,24.0,24.0,98524414.0
2025-12-08T02:36:18.787647,0,1370,0.0,0.0,24.0,24.0,98524414.0
2025-12-08T02:36:18.788691,0,1371,0.0,0.0,24.0,24.0,98524414.0
2025-12-08T02:36:18.788691,0,1372,0.0,0.0,24.0,24.0,98525390.0
2025-12-08T02:36:18.789685,0,1373,0.0,0.0,24.0,24.0,98525390.0
2025-12-08T02:36:18.789685,0,1374,0.0,0.0,24.0,24.0,98525390.0
2025-12-08T02:36:18.790717,0,1375,0.0,0.0,24.0,24.0,98525390.0
2025-12-08T02:36:18.790717,0,1376,0.0,0.0,24.0,24.0,98526367.0
2025-12-08T02:36:18.791694,0,1377,0.0,0.0,24.0,24.0,98526367.0
2025-12-08T02:36:18.791694,0,1378,0.0,0.0,24.0,24.0,98526367.0
2025-12-08T02:36:18.792705,0,1379,0.0,0.0,24.0,24.0,98526367.0
2025-12-08T02:36:18.792705,0,1380,0.0,0.0,24.0,24.0,98527343.0
2025-12-08T02:36:18.793697,0,1381,0.0,0.0,24.0,24.0,98527343.0
2025-12-08T02:36:18.793697,0,1382,0.0,0.0,24.0,24.0,98527343.0
2025-12-08T02:36:18.794696,0,1383,0.0,0.0,24.0,24.0,98527343.0
2025-12-08T02:36:18.794696,0,1384,0.0,0.0,24.0,24.0,98528320.0
2025-12-08T02:36:18.795706,0,1385,0.0,0.0,24.0,24.0,98528320.0
2025-12-08T02:36:18.795706,0,1386,0.0,0.0,24.0,24.0,98528320.0
2025-12-08T02:36:18.796703,0,1387,0.0,0.0,24.0,24.0,98528320.0
2025-12-08T02:36:18.796703,0,1388,0.0,0.0,24.0,24.0,98529296.0
2025-12-08T02:36:18.796703,0,1389,0.0,0.0,24.0,24.0,98529296.0
2025-12-08T02:36:18.797685,0,1390,0.0,0.0,24.0,24.0,98529296.0
2025-12-08T02:36:18.797685,0,1391,0.0,0.0,24.0,24.0,98529296.0
2025-12-08T02:36:18.798704,0,1392,0.0,0.0,24.0,24.0,98529296.0
2025-12-08T02:36:18.798704,0,1393,0.0,0.0,24.0,24.0,98530273.0
2025-12-08T02:36:18.799659,0,1394,0.0,0.0,24.0,24.0,98530273.0
2025-12-08T02:36:18.799659,0,1395,0.0,0.0,24.0,24.0,98530273.0
2025-12-08T02:36:18.800658,0,1396,0.0,0.0,24.0,24.0,98530273.0
2025-12-08T02:36:18.800658,0,1397,0.0,0.0,24.0,24.0,98531250.0
2025-12-08T02:36:18.801651,0,1398,0.0,0.0,24.0,24.0,98531250.0
2025-12-08T02:36:18.801651,0,1399,0.0,0.0,24.0,24.0,98531250.0
2025-12-08T02:36:18.802660,0,1400,0.0,0.0,24.0,24.0,98531250.0
2025-12-08T02:36:18.802660,0,1401,0.0,0.0,24.0,24.0,98532226.0
2025-12-08T02:36:18.803659,0,1402,0.0,0.0,24.0,24.0,98532226.0
2025-12-08T02:36:18.803659,0,1403,0.0,0.0,24.0,24.0,98532226.0
2025-12-08T02:36:18.804658,0,1404,0.0,0.0,24.0,24.0,98532226.0
2025-12-08T02:36:18.804658,0,1405,0.0,0.0,24.0,24.0,98532226.0
2025-12-08T02:36:18.805658,0,1406,0.0,0.0,24.0,24.0,98533203.0
2025-12-08T02:36:18.805658,0,1407,0.0,0.0,24.0,24.0,98533203.0
2025-12-08T02:36:18.805658,0,1408,0.0,0.0,24.0,24.0,98533203.0
2025-12-08T02:36:18.806657,0,1409,0.0,0.0,24.0,24.0,98533203.0
2025-12-08T02:36:18.806657,0,1410,0.0,0.0,24.0,24.0,98533203.0
2025-12-08T02:36:18.807658,0,1411,0.0,0.0,24.0,24.0,98534179.0
2025-12-08T02:36:18.807658,0,1412,0.0,0.0,24.0,24.0,98534179.0
2025-12-08T02:36:18.808658,0,1413,0.0,0.0,24.0,24.0,98534179.0
2025-12-08T02:36:18.808658,0,1414,0.0,0.0,24.0,24.0,98534179.0
2025-12-08T02:36:18.808658,0,1415,0.0,0.0,24.0,24.0,98535156.0
2025-12-08T02:36:18.809658,0,1416,0.0,0.0,24.0,24.0,98535156.0
2025-12-08T02:36:18.809658,0,1417,0.0,0.0,24.0,24.0,98535156.0
2025-12-08T02:36:18.810657,0,1418,0.0,0.0,24.0,24.0,98535156.0
2025-12-08T02:36:18.810657,0,1419,0.0,0.0,24.0,24.0,98535156.0
2025-12-08T02:36:18.811658,0,1420,0.0,0.0,24.0,24.0,98536132.0
2025-12-08T02:36:18.811658,0,1421,0.0,0.0,24.0,24.0,98536132.0
2025-12-08T02:36:18.812658,0,1422,0.0,0.0,24.0,24.0,98536132.0
2025-12-08T02:36:18.812658,0,1423,0.0,0.0,24.0,24.0,98536132.0
2025-12-08T02:36:18.813659,0,1424,0.0,0.0,24.0,24.0,98537109.0
2025-12-08T02:36:18.813659,0,1425,0.0,0.0,24.0,24.0,98537109.0
2025-12-08T02:36:18.813659,0,1426,0.0,0.0,24.0,24.0,98537109.0
2025-12-08T02:36:18.814658,0,1427,0.0,0.0,24.0,24.0,98537109.0
2025-12-08T02:36:18.814658,0,1428,0.0,0.0,24.0,24.0,98538085.0
2025-12-08T02:36:18.815696,0,1429,0.0,0.0,24.0,24.0,98538085.0
2025-12-08T02:36:18.815696,0,1430,0.0,0.0,24.0,24.0,98538085.0
2025-12-08T02:36:18.816690,0,1431,0.0,0.0,24.0,24.0,98539062.0
2025-12-08T02:36:18.816690,0,1432,0.0,0.0,24.0,24.0,98539062.0
2025-12-08T02:36:18.816690,0,1433,0.0,0.0,24.0,24.0,98539062.0
2025-12-08T02:36:18.818084,0,1434,0.0,0.0,24.0,24.0,98539062.0
2025-12-08T02:36:18.818084,0,1435,0.0,0.0,24.0,24.0,98539062.0
2025-12-08T02:36:18.818631,0,1436,0.0,0.0,24.0,24.0,98540039.0
2025-12-08T02:36:18.818631,0,1437,0.0,0.0,24.0,24.0,98540039.0
2025-12-08T02:36:18.819714,0,1438,0.0,0.0,24.0,24.0,98540039.0
2025-12-08T02:36:18.819714,0,1439,0.0,0.0,24.0,24.0,98540039.0
2025-12-08T02:36:18.820655,0,1440,0.0,0.0,24.0,24.0,98541015.0
2025-12-08T02:36:18.820655,0,1441,0.0,0.0,24.0,24.0,98541015.0
2025-12-08T02:36:18.821917,0,1442,0.0,0.0,24.0,24.0,98541015.0
2025-12-08T02:36:18.821917,0,1443,0.0,0.0,24.0,24.0,98541015.0
2025-12-08T02:36:18.821917,0,1444,0.0,0.0,24.0,24.0,98541992.0
2025-12-08T02:36:18.822962,0,1445,0.0,0.0,24.0,24.0,98541992.0
2025-12-08T02:36:18.822962,0,1446,0.0,0.0,24.0,24.0,98541992.0
2025-12-08T02:36:18.823956,0,1447,0.0,0.0,24.0,24.0,98541992.0
2025-12-08T02:36:18.823956,0,1448,0.0,0.0,24.0,24.0,98541992.0
2025-12-08T02:36:18.824970,0,1449,0.0,0.0,24.0,24.0,98542968.0
2025-12-08T02:36:18.824970,0,1450,0.0,0.0,24.0,24.0,98542968.0
2025-12-08T02:36:18.825961,0,1451,0.0,0.0,24.0,24.0,98542968.0
2025-12-08T02:36:18.825961,0,1452,0.0,0.0,24.0,24.0,98542968.0
2025-12-08T02:36:18.825961,0,1453,0.0,0.0,24.0,24.0,98543945.0
2025-12-08T02:36:18.826966,0,1454,0.0,0.0,24.0,24.0,98543945.0
2025-12-08T02:36:18.826966,0,1455,0.0,0.0,24.0,24.0,98543945.0
2025-12-08T02:36:18.827961,0,1456,0.0,0.0,24.0,24.0,98543945.0
2025-12-08T02:36:18.827961,0,1457,0.0,0.0,24.0,24.0,98544921.0
2025-12-08T02:36:18.828968,0,1458,0.0,0.0,24.0,24.0,98544921.0
2025-12-08T02:36:18.828968,0,1459,0.0,0.0,24.0,24.0,98544921.0
2025-12-08T02:36:18.828968,0,1460,0.0,0.0,24.0,24.0,98544921.0
2025-12-08T02:36:18.829970,0,1461,0.0,0.0,24.0,24.0,98545898.0
2025-12-08T02:36:18.829970,0,1462,0.0,0.0,24.0,24.0,98545898.0
2025-12-08T02:36:18.830960,0,1463,0.0,0.0,24.0,24.0,98545898.0
2025-12-08T02:36:18.830960,0,1464,0.0,0.0,24.0,24.0,98545898.0
2025-12-08T02:36:18.831965,0,1465,0.0,0.0,24.0,24.0,98546875.0
2025-12-08T02:36:18.831965,0,1466,0.0,0.0,24.0,24.0,98546875.0
2025-12-08T02:36:18.831965,0,1467,0.0,0.0,24.0,24.0,98546875.0
2025-12-08T02:36:18.832964,0,1468,0.0,0.0,24.0,24.0,98546875.0
2025-12-08T02:36:18.832964,0,1469,0.0,0.0,24.0,24.0,98547851.0
2025-12-08T02:36:18.833970,0,1470,0.0,0.0,24.0,24.0,98547851.0
2025-12-08T02:36:18.833970,0,1471,0.0,0.0,24.0,24.0,98547851.0
2025-12-08T02:36:18.834970,0,1472,0.0,0.0,24.0,24.0,98547851.0
2025-12-08T02:36:18.834970,0,1473,0.0,0.0,24.0,24.0,98548828.0
2025-12-08T02:36:18.834970,0,1474,0.0,0.0,24.0,24.0,98548828.0
2025-12-08T02:36:18.835961,0,1475,0.0,0.0,24.0,24.0,98548828.0
2025-12-08T02:36:18.835961,0,1476,0.0,0.0,24.0,24.0,98548828.0
2025-12-08T02:36:18.837141,0,1477,0.0,0.0,24.0,24.0,98549804.0
2025-12-08T02:36:18.837141,0,1478,0.0,0.0,24.0,24.0,98549804.0
2025-12-08T02:36:18.837141,0,1479,0.0,0.0,24.0,24.0,98549804.0
2025-12-08T02:36:18.838190,0,1480,0.0,0.0,24.0,24.0,98549804.0
2025-12-08T02:36:18.839158,0,1481,0.0,0.0,24.0,24.0,98549804.0
2025-12-08T02:36:18.839158,0,1482,0.0,0.0,24.0,24.0,98550781.0
2025-12-08T02:36:18.839158,0,1483,0.0,0.0,24.0,24.0,98550781.0
2025-12-08T02:36:18.840149,0,1484,0.0,0.0,24.0,24.0,98550781.0
2025-12-08T02:36:18.840149,0,1485,0.0,0.0,24.0,24.0,98550781.0
2025-12-08T02:36:18.841147,0,1486,0.0,0.0,24.0,24.0,98551757.0
2025-12-08T02:36:18.841147,0,1487,0.0,0.0,24.0,24.0,98551757.0
2025-12-08T02:36:18.842147,0,1488,0.0,0.0,24.0,24.0,98551757.0
2025-12-08T02:36:18.842147,0,1489,0.0,0.0,24.0,24.0,98551757.0
2025-12-08T02:36:18.842147,0,1490,0.0,0.0,24.0,24.0,98552734.0
2025-12-08T02:36:18.843146,0,1491,0.0,0.0,24.0,24.0,98552734.0
2025-12-08T02:36:18.843146,0,1492,0.0,0.0,24.0,24.0,98552734.0
2025-12-08T02:36:18.844146,0,1493,0.0,0.0,24.0,24.0,98552734.0
2025-12-08T02:36:18.844146,0,1494,0.0,0.0,24.0,24.0,98552734.0
2025-12-08T02:36:18.845146,0,1495,0.0,0.0,24.0,24.0,98553710.0
2025-12-08T02:36:18.845146,0,1496,0.0,0.0,24.0,24.0,98553710.0
2025-12-08T02:36:18.845146,0,1497,0.0,0.0,24.0,24.0,98553710.0
2025-12-08T02:36:18.846147,0,1498,0.0,0.0,24.0,24.0,98553710.0
2025-12-08T02:36:18.846147,0,1499,0.0,0.0,24.0,24.0,98553710.0
2025-12-08T02:36:18.847152,0,1500,0.0,0.0,24.0,24.0,98554687.0
2025-12-08T02:36:18.847152,0,1501,0.0,0.0,24.0,24.0,98554687.0
2025-12-08T02:36:18.848152,0,1502,0.0,0.0,24.0,24.0,98554687.0
2025-12-08T02:36:18.848152,0,1503,0.0,0.0,24.0,24.0,98554687.0
2025-12-08T02:36:18.849153,0,1504,0.0,0.0,24.0,24.0,98555664.0
2025-12-08T02:36:18.849153,0,1505,0.0,0.0,24.0,24.0,98555664.0
2025-12-08T02:36:18.849153,0,1506,0.0,0.0,24.0,24.0,98555664.0
2025-12-08T02:36:18.850152,0,1507,0.0,0.0,24.0,24.0,98555664.0
2025-12-08T02:36:18.850152,0,1508,0.0,0.0,24.0,24.0,98556640.0
2025-12-08T02:36:18.851152,0,1509,0.0,0.0,24.0,24.0,98556640.0
2025-12-08T02:36:18.851152,0,1510,0.0,0.0,24.0,24.0,98556640.0
2025-12-08T02:36:18.852153,0,1511,0.0,0.0,24.0,24.0,98556640.0
2025-12-08T02:36:18.852153,0,1512,0.0,0.0,24.0,24.0,98556640.0
2025-12-08T02:36:18.852153,0,1513,0.0,0.0,24.0,24.0,98557617.0
2025-12-08T02:36:18.853152,0,1514,0.0,0.0,24.0,24.0,98557617.0
2025-12-08T02:36:18.853152,0,1515,0.0,0.0,24.0,24.0,98557617.0
2025-12-08T02:36:18.854154,0,1516,0.0,0.0,24.0,24.0,98557617.0
2025-12-08T02:36:18.854154,0,1517,0.0,0.0,24.0,24.0,98558593.0
2025-12-08T02:36:18.855153,0,1518,0.0,0.0,24.0,24.0,98558593.0
2025-12-08T02:36:18.855153,0,1519,0.0,0.0,24.0,24.0,98558593.0
2025-12-08T02:36:18.856152,0,1520,0.0,0.0,24.0,24.0,98558593.0
2025-12-08T02:36:18.856152,0,1521,0.0,0.0,24.0,24.0,98559570.0
2025-12-08T02:36:18.856152,0,1522,0.0,0.0,24.0,24.0,98559570.0
2025-12-08T02:36:18.857152,0,1523,0.0,0.0,24.0,24.0,98559570.0
2025-12-08T02:36:18.857152,0,1524,0.0,0.0,24.0,24.0,98559570.0
2025-12-08T02:36:18.858152,0,1525,0.0,0.0,24.0,24.0,98559570.0
2025-12-08T02:36:18.858152,0,1526,0.0,0.0,24.0,24.0,98560546.0
2025-12-08T02:36:18.859152,0,1527,0.0,0.0,24.0,24.0,98560546.0
2025-12-08T02:36:18.859152,0,1528,0.0,0.0,24.0,24.0,98560546.0
2025-12-08T02:36:18.859152,0,1529,0.0,0.0,24.0,24.0,98560546.0
2025-12-08T02:36:18.860152,0,1530,0.0,0.0,24.0,24.0,98561523.0
2025-12-08T02:36:18.860152,0,1531,0.0,0.0,24.0,24.0,98561523.0
2025-12-08T02:36:18.861152,0,1532,0.0,0.0,24.0,24.0,98561523.0
2025-12-08T02:36:18.861152,0,1533,0.0,0.0,24.0,24.0,98561523.0
2025-12-08T02:36:18.862152,0,1534,0.0,0.0,24.0,24.0,98562500.0
2025-12-08T02:36:18.862152,0,1535,0.0,0.0,24.0,24.0,98562500.0
2025-12-08T02:36:18.862152,0,1536,0.0,0.0,24.0,24.0,98562500.0
2025-12-08T02:36:18.863147,0,1537,0.0,0.0,24.0,24.0,98562500.0
2025-12-08T02:36:18.863147,0,1538,0.0,0.0,24.0,24.0,98562500.0
2025-12-08T02:36:18.864153,0,1539,0.0,0.0,24.0,24.0,98563476.0
2025-12-08T02:36:18.864153,0,1540,0.0,0.0,24.0,24.0,98563476.0
2025-12-08T02:36:18.865152,0,1541,0.0,0.0,24.0,24.0,98563476.0
2025-12-08T02:36:18.865152,0,1542,0.0,0.0,24.0,24.0,98563476.0
2025-12-08T02:36:18.865152,0,1543,0.0,0.0,24.0,24.0,98564453.0
2025-12-08T02:36:18.866152,0,1544,0.0,0.0,24.0,24.0,98564453.0
2025-12-08T02:36:18.866152,0,1545,0.0,0.0,24.0,24.0,98564453.0
2025-12-08T02:36:18.867152,0,1546,0.0,0.0,24.0,24.0,98564453.0
2025-12-08T02:36:18.867152,0,1547,0.0,0.0,24.0,24.0,98565429.0
2025-12-08T02:36:18.868152,0,1548,0.0,0.0,24.0,24.0,98565429.0
2025-12-08T02:36:18.868152,0,1549,0.0,0.0,24.0,24.0,98565429.0
2025-12-08T02:36:18.868152,0,1550,0.0,0.0,24.0,24.0,98565429.0
2025-12-08T02:36:18.869152,0,1551,0.0,0.0,24.0,24.0,98566406.0
2025-12-08T02:36:18.869152,0,1552,0.0,0.0,24.0,24.0,98566406.0
2025-12-08T02:36:18.870152,0,1553,0.0,0.0,24.0,24.0,98566406.0
2025-12-08T02:36:18.870152,0,1554,0.0,0.0,24.0,24.0,98566406.0
2025-12-08T02:36:18.871312,0,1555,0.0,0.0,24.0,24.0,98567382.0
2025-12-08T02:36:18.871373,0,1556,0.0,0.0,24.0,24.0,98567382.0
2025-12-08T02:36:18.871373,0,1557,0.0,0.0,24.0,24.0,98567382.0
2025-12-08T02:36:18.872421,0,1558,0.0,0.0,24.0,24.0,98567382.0
2025-12-08T02:36:18.872421,0,1559,0.0,0.0,24.0,24.0,98567382.0
2025-12-08T02:36:18.872421,0,1560,0.0,0.0,24.0,24.0,98568359.0
2025-12-08T02:36:18.873425,0,1561,0.0,0.0,24.0,24.0,98568359.0
2025-12-08T02:36:18.874211,0,1562,0.0,0.0,24.0,24.0,98568359.0
2025-12-08T02:36:18.874211,0,1563,0.0,0.0,24.0,24.0,98568359.0
2025-12-08T02:36:18.875299,0,1564,0.0,0.0,24.0,24.0,98569335.0
2025-12-08T02:36:18.875299,0,1565,0.0,0.0,24.0,24.0,98569335.0
2025-12-08T02:36:18.875299,0,1566,0.0,0.0,24.0,24.0,98569335.0
2025-12-08T02:36:18.876292,0,1567,0.0,0.0,24.0,24.0,98569335.0
2025-12-08T02:36:18.876292,0,1568,0.0,0.0,24.0,24.0,98570312.0
2025-12-08T02:36:18.877293,0,1569,0.0,0.0,24.0,24.0,98570312.0
2025-12-08T02:36:18.877293,0,1570,0.0,0.0,24.0,24.0,98570312.0
2025-12-08T02:36:18.877293,0,1571,0.0,0.0,24.0,24.0,98570312.0
2025-12-08T02:36:18.878291,0,1572,0.0,0.0,24.0,24.0,98570312.0
2025-12-08T02:36:18.878291,0,1573,0.0,0.0,24.0,24.0,98571289.0
2025-12-08T02:36:18.879297,0,1574,0.0,0.0,24.0,24.0,98571289.0
2025-12-08T02:36:18.879297,0,1575,0.0,0.0,24.0,24.0,98571289.0
2025-12-08T02:36:18.880293,0,1576,0.0,0.0,24.0,24.0,98571289.0
2025-12-08T02:36:18.880293,0,1577,0.0,0.0,24.0,24.0,98572265.0
2025-12-08T02:36:18.881289,0,1578,0.0,0.0,24.0,24.0,98572265.0
2025-12-08T02:36:18.881289,0,1579,0.0,0.0,24.0,24.0,98572265.0
2025-12-08T02:36:18.881289,0,1580,0.0,0.0,24.0,24.0,98572265.0
2025-12-08T02:36:18.882290,0,1581,0.0,0.0,24.0,24.0,98573242.0
2025-12-08T02:36:18.882290,0,1582,0.0,0.0,24.0,24.0,98573242.0
2025-12-08T02:36:18.883289,0,1583,0.0,0.0,24.0,24.0,98573242.0
2025-12-08T02:36:18.883289,0,1584,0.0,0.0,24.0,24.0,98573242.0
2025-12-08T02:36:18.884297,0,1585,0.0,0.0,24.0,24.0,98574218.0
2025-12-08T02:36:18.884651,0,1586,0.0,0.0,24.0,24.0,98574218.0
2025-12-08T02:36:18.885956,0,1587,0.0,0.0,24.0,24.0,98574218.0
2025-12-08T02:36:18.885956,0,1588,0.0,0.0,24.0,24.0,98574218.0
2025-12-08T02:36:18.885956,0,1589,0.0,0.0,24.0,24.0,98574218.0
2025-12-08T02:36:18.886942,0,1590,0.0,0.0,24.0,24.0,98575195.0
2025-12-08T02:36:18.886942,0,1591,0.0,0.0,24.0,24.0,98575195.0
2025-12-08T02:36:18.888138,0,1592,0.0,0.0,24.0,24.0,98575195.0
2025-12-08T02:36:18.888138,0,1593,0.0,0.0,24.0,24.0,98575195.0
2025-12-08T02:36:18.888138,0,1594,0.0,0.0,24.0,24.0,98576171.0
2025-12-08T02:36:18.889178,0,1595,0.0,0.0,24.0,24.0,98576171.0
2025-12-08T02:36:18.889178,0,1596,0.0,0.0,24.0,24.0,98576171.0
2025-12-08T02:36:18.890178,0,1597,0.0,0.0,24.0,24.0,98576171.0
2025-12-08T02:36:18.890178,0,1598,0.0,0.0,24.0,24.0,98577148.0
2025-12-08T02:36:18.891191,0,1599,0.0,0.0,24.0,24.0,98577148.0
2025-12-08T02:36:18.891191,0,1600,0.0,0.0,24.0,24.0,98577148.0
2025-12-08T02:36:18.891191,0,1601,0.0,0.0,24.0,24.0,98577148.0
2025-12-08T02:36:18.892177,0,1602,0.0,0.0,24.0,24.0,98578125.0
2025-12-08T02:36:18.892177,0,1603,0.0,0.0,24.0,24.0,98578125.0
2025-12-08T02:36:18.893186,0,1604,0.0,0.0,24.0,24.0,98578125.0
2025-12-08T02:36:18.893186,0,1605,0.0,0.0,24.0,24.0,98578125.0
2025-12-08T02:36:18.893186,0,1606,0.0,0.0,24.0,24.0,98579101.0
2025-12-08T02:36:18.894186,0,1607,0.0,0.0,24.0,24.0,98579101.0
2025-12-08T02:36:18.894186,0,1608,0.0,0.0,24.0,24.0,98579101.0
2025-12-08T02:36:18.895185,0,1609,0.0,0.0,24.0,24.0,98579101.0
2025-12-08T02:36:18.895185,0,1610,0.0,0.0,24.0,24.0,98580078.0
2025-12-08T02:36:18.896141,0,1611,0.0,0.0,24.0,24.0,98580078.0
2025-12-08T02:36:18.896141,0,1612,0.0,0.0,24.0,24.0,98580078.0
2025-12-08T02:36:18.896141,0,1613,0.0,0.0,24.0,24.0,98580078.0
2025-12-08T02:36:18.897180,0,1614,0.0,0.0,24.0,24.0,98580078.0
2025-12-08T02:36:18.897180,0,1615,0.0,0.0,24.0,24.0,98581054.0
2025-12-08T02:36:18.898186,0,1616,0.0,0.0,24.0,24.0,98581054.0
2025-12-08T02:36:18.898186,0,1617,0.0,0.0,24.0,24.0,98581054.0
2025-12-08T02:36:18.899180,0,1618,0.0,0.0,24.0,24.0,98581054.0
2025-12-08T02:36:18.900140,0,1619,0.0,0.0,24.0,24.0,98582031.0
2025-12-08T02:36:18.900140,0,1620,0.0,0.0,24.0,24.0,98582031.0
2025-12-08T02:36:18.901186,0,1621,0.0,0.0,24.0,24.0,98582031.0
2025-12-08T02:36:18.902190,0,1622,0.0,0.0,24.0,24.0,98582031.0
2025-12-08T02:36:18.903184,0,1623,0.0,0.0,24.0,24.0,98583007.0
2025-12-08T02:36:18.903184,0,1624,0.0,0.0,24.0,24.0,98583007.0
2025-12-08T02:36:18.904262,0,1625,0.0,0.0,24.0,24.0,98583007.0
2025-12-08T02:36:18.904262,0,1626,0.0,0.0,24.0,24.0,98583007.0
2025-12-08T02:36:18.905310,0,1627,0.0,0.0,24.0,24.0,98583984.0
2025-12-08T02:36:18.906308,0,1628,0.0,0.0,24.0,24.0,98583984.0
2025-12-08T02:36:18.906308,0,1629,0.0,0.0,24.0,24.0,98583984.0
2025-12-08T02:36:18.907313,0,1630,0.0,0.0,24.0,24.0,98583984.0
2025-12-08T02:36:18.908312,0,1631,0.0,0.0,24.0,24.0,98584960.0
2025-12-08T02:36:18.908312,0,1632,0.0,0.0,24.0,24.0,98584960.0
2025-12-08T02:36:18.909313,0,1633,0.0,0.0,24.0,24.0,98584960.0
2025-12-08T02:36:18.910309,0,1634,0.0,0.0,24.0,24.0,98584960.0
2025-12-08T02:36:18.910309,0,1635,0.0,0.0,24.0,24.0,98585937.0
2025-12-08T02:36:18.911310,0,1636,0.0,0.0,24.0,24.0,98585937.0
2025-12-08T02:36:18.912313,0,1637,0.0,0.0,24.0,24.0,98585937.0
2025-12-08T02:36:18.912313,0,1638,0.0,0.0,24.0,24.0,98585937.0
2025-12-08T02:36:18.913265,0,1639,0.0,0.0,24.0,24.0,98585937.0
2025-12-08T02:36:18.913265,0,1640,0.0,0.0,24.0,24.0,98586914.0
2025-12-08T02:36:18.913265,0,1641,0.0,0.0,24.0,24.0,98586914.0
2025-12-08T02:36:18.914266,0,1642,0.0,0.0,24.0,24.0,98586914.0
2025-12-08T02:36:18.914266,0,1643,0.0,0.0,24.0,24.0,98586914.0
2025-12-08T02:36:18.915266,0,1644,0.0,0.0,24.0,24.0,98587890.0
2025-12-08T02:36:18.915266,0,1645,0.0,0.0,24.0,24.0,98587890.0
2025-12-08T02:36:18.915266,0,1646,0.0,0.0,24.0,24.0,98587890.0
2025-12-08T02:36:18.916320,0,1647,0.0,0.0,24.0,24.0,98588867.0
2025-12-08T02:36:18.916320,0,1648,0.0,0.0,24.0,24.0,98588867.0
2025-12-08T02:36:18.917314,0,1649,0.0,0.0,24.0,24.0,98588867.0
2025-12-08T02:36:18.917314,0,1650,0.0,0.0,24.0,24.0,98588867.0
2025-12-08T02:36:18.917314,0,1651,0.0,0.0,24.0,24.0,98588867.0
2025-12-08T02:36:18.918311,0,1652,0.0,0.0,24.0,24.0,98589843.0
2025-12-08T02:36:18.918311,0,1653,0.0,0.0,24.0,24.0,98589843.0
2025-12-08T02:36:18.919316,0,1654,0.0,0.0,24.0,24.0,98589843.0
2025-12-08T02:36:18.919316,0,1655,0.0,0.0,24.0,24.0,98589843.0
2025-12-08T02:36:18.919316,0,1656,0.0,0.0,24.0,24.0,98590820.0
2025-12-08T02:36:18.920318,0,1657,0.0,0.0,24.0,24.0,98590820.0
2025-12-08T02:36:18.920318,0,1658,0.0,0.0,24.0,24.0,98590820.0
2025-12-08T02:36:18.921268,0,1659,0.0,0.0,24.0,24.0,98590820.0
2025-12-08T02:36:18.921268,0,1660,0.0,0.0,24.0,24.0,98591796.0
2025-12-08T02:36:18.921268,0,1661,0.0,0.0,24.0,24.0,98591796.0
2025-12-08T02:36:18.922318,0,1662,0.0,0.0,24.0,24.0,98591796.0
2025-12-08T02:36:18.922318,0,1663,0.0,0.0,24.0,24.0,98591796.0
2025-12-08T02:36:18.922318,0,1664,0.0,0.0,24.0,24.0,98592773.0
2025-12-08T02:36:18.923314,0,1665,0.0,0.0,24.0,24.0,98592773.0
2025-12-08T02:36:18.923314,0,1666,0.0,0.0,24.0,24.0,98592773.0
2025-12-08T02:36:18.924310,0,1667,0.0,0.0,24.0,24.0,98592773.0
2025-12-08T02:36:18.924310,0,1668,0.0,0.0,24.0,24.0,98593750.0
2025-12-08T02:36:18.924310,0,1669,0.0,0.0,24.0,24.0,98593750.0
2025-12-08T02:36:18.925310,0,1670,0.0,0.0,24.0,24.0,98593750.0
2025-12-08T02:36:18.925310,0,1671,0.0,0.0,24.0,24.0,98593750.0
2025-12-08T02:36:18.926311,0,1672,0.0,0.0,24.0,24.0,98593750.0
2025-12-08T02:36:18.926311,0,1673,0.0,0.0,24.0,24.0,98594726.0
2025-12-08T02:36:18.926311,0,1674,0.0,0.0,24.0,24.0,98594726.0
2025-12-08T02:36:18.927310,0,1675,0.0,0.0,24.0,24.0,98594726.0
2025-12-08T02:36:18.927310,0,1676,0.0,0.0,24.0,24.0,98594726.0
2025-12-08T02:36:18.928315,0,1677,0.0,0.0,24.0,24.0,98594726.0
2025-12-08T02:36:18.928315,0,1678,0.0,0.0,24.0,24.0,98595703.0
2025-12-08T02:36:18.929264,0,1679,0.0,0.0,24.0,24.0,98595703.0
2025-12-08T02:36:18.929264,0,1680,0.0,0.0,24.0,24.0,98595703.0
2025-12-08T02:36:18.929264,0,1681,0.0,0.0,24.0,24.0,98596679.0
2025-12-08T02:36:18.930321,0,1682,0.0,0.0,24.0,24.0,98596679.0
2025-12-08T02:36:18.930321,0,1683,0.0,0.0,24.0,24.0,98596679.0
2025-12-08T02:36:18.931312,0,1684,0.0,0.0,24.0,24.0,98596679.0
2025-12-08T02:36:18.931550,0,1685,0.0,0.0,24.0,24.0,98596679.0
2025-12-08T02:36:18.931550,0,1686,0.0,0.0,24.0,24.0,98597656.0
2025-12-08T02:36:18.932610,0,1687,0.0,0.0,24.0,24.0,98597656.0
2025-12-08T02:36:18.932610,0,1688,0.0,0.0,24.0,24.0,98597656.0
2025-12-08T02:36:18.932610,0,1689,0.0,0.0,24.0,24.0,98597656.0
2025-12-08T02:36:18.933624,0,1690,0.0,0.0,24.0,24.0,98598632.0
2025-12-08T02:36:18.933624,0,1691,0.0,0.0,24.0,24.0,98598632.0
2025-12-08T02:36:18.934618,0,1692,0.0,0.0,24.0,24.0,98598632.0
2025-12-08T02:36:18.934618,0,1693,0.0,0.0,24.0,24.0,98598632.0
2025-12-08T02:36:18.934618,0,1694,0.0,0.0,24.0,24.0,98599609.0
2025-12-08T02:36:18.935616,0,1695,0.0,0.0,24.0,24.0,98599609.0
2025-12-08T02:36:18.935616,0,1696,0.0,0.0,24.0,24.0,98599609.0
2025-12-08T02:36:18.936618,0,1697,0.0,0.0,24.0,24.0,98599609.0
2025-12-08T02:36:18.936618,0,1698,0.0,0.0,24.0,24.0,98599609.0
2025-12-08T02:36:18.936618,0,1699,0.0,0.0,24.0,24.0,98600585.0
2025-12-08T02:36:18.937706,0,1700,0.0,0.0,24.0,24.0,98600585.0
2025-12-08T02:36:18.937706,0,1701,0.0,0.0,24.0,24.0,98600585.0
2025-12-08T02:36:18.937706,0,1702,0.0,0.0,24.0,24.0,98600585.0
2025-12-08T02:36:18.938754,0,1703,0.0,0.0,24.0,24.0,98601562.0
2025-12-08T02:36:18.938754,0,1704,0.0,0.0,24.0,24.0,98601562.0
2025-12-08T02:36:18.939755,0,1705,0.0,0.0,24.0,24.0,98601562.0
2025-12-08T02:36:18.939755,0,1706,0.0,0.0,24.0,24.0,98601562.0
2025-12-08T02:36:18.939755,0,1707,0.0,0.0,24.0,24.0,98602539.0
2025-12-08T02:36:18.940759,0,1708,0.0,0.0,24.0,24.0,98602539.0
2025-12-08T02:36:18.940759,0,1709,0.0,0.0,24.0,24.0,98602539.0
2025-12-08T02:36:18.941771,0,1710,0.0,0.0,24.0,24.0,98602539.0
2025-12-08T02:36:18.941771,0,1711,0.0,0.0,24.0,24.0,98603515.0
2025-12-08T02:36:18.941771,0,1712,0.0,0.0,24.0,24.0,98603515.0
2025-12-08T02:36:18.942754,0,1713,0.0,0.0,24.0,24.0,98603515.0
2025-12-08T02:36:18.942754,0,1714,0.0,0.0,24.0,24.0,98603515.0
2025-12-08T02:36:18.943756,0,1715,0.0,0.0,24.0,24.0,98604492.0
2025-12-08T02:36:18.943756,0,1716,0.0,0.0,24.0,24.0,98604492.0
2025-12-08T02:36:18.943756,0,1717,0.0,0.0,24.0,24.0,98604492.0
2025-12-08T02:36:18.944755,0,1718,0.0,0.0,24.0,24.0,98604492.0
2025-12-08T02:36:18.944755,0,1719,0.0,0.0,24.0,24.0,98604492.0
2025-12-08T02:36:18.945754,0,1720,0.0,0.0,24.0,24.0,98605468.0
2025-12-08T02:36:18.945754,0,1721,0.0,0.0,24.0,24.0,98605468.0
2025-12-08T02:36:18.945754,0,1722,0.0,0.0,24.0,24.0,98605468.0
2025-12-08T02:36:18.946759,0,1723,0.0,0.0,24.0,24.0,98605468.0
2025-12-08T02:36:18.947751,0,1724,0.0,0.0,24.0,24.0,98606445.0
2025-12-08T02:36:18.947751,0,1725,0.0,0.0,24.0,24.0,98606445.0
2025-12-08T02:36:18.948711,0,1726,0.0,0.0,24.0,24.0,98606445.0
2025-12-08T02:36:18.948711,0,1727,0.0,0.0,24.0,24.0,98606445.0
2025-12-08T02:36:18.948711,0,1728,0.0,0.0,24.0,24.0,98607421.0
2025-12-08T02:36:18.949709,0,1729,0.0,0.0,24.0,24.0,98607421.0
2025-12-08T02:36:18.949709,0,1730,0.0,0.0,24.0,24.0,98607421.0
2025-12-08T02:36:18.950708,0,1731,0.0,0.0,24.0,24.0,98608398.0
2025-12-08T02:36:18.950708,0,1732,0.0,0.0,24.0,24.0,98608398.0
2025-12-08T02:36:18.950708,0,1733,0.0,0.0,24.0,24.0,98608398.0
2025-12-08T02:36:18.951709,0,1734,0.0,0.0,24.0,24.0,98608398.0
2025-12-08T02:36:18.951709,0,1735,0.0,0.0,24.0,24.0,98608398.0
2025-12-08T02:36:18.952708,0,1736,0.0,0.0,24.0,24.0,98609375.0
2025-12-08T02:36:18.952708,0,1737,0.0,0.0,24.0,24.0,98609375.0
2025-12-08T02:36:18.952708,0,1738,0.0,0.0,24.0,24.0,98609375.0
2025-12-08T02:36:18.953849,0,1739,0.0,0.0,24.0,24.0,98609375.0
2025-12-08T02:36:18.953849,0,1740,0.0,0.0,24.0,24.0,98610351.0
2025-12-08T02:36:18.953849,0,1741,0.0,0.0,24.0,24.0,98610351.0
2025-12-08T02:36:18.954901,0,1742,0.0,0.0,24.0,24.0,98610351.0
2025-12-08T02:36:18.954901,0,1743,0.0,0.0,24.0,24.0,98610351.0
2025-12-08T02:36:18.955901,0,1744,0.0,0.0,24.0,24.0,98611328.0
2025-12-08T02:36:18.955901,0,1745,0.0,0.0,24.0,24.0,98611328.0
2025-12-08T02:36:18.955901,0,1746,0.0,0.0,24.0,24.0,98611328.0
2025-12-08T02:36:18.956908,0,1747,0.0,0.0,24.0,24.0,98611328.0
2025-12-08T02:36:18.956908,0,1748,0.0,0.0,24.0,24.0,98611328.0
2025-12-08T02:36:18.957901,0,1749,0.0,0.0,24.0,24.0,98612304.0
2025-12-08T02:36:18.957901,0,1750,0.0,0.0,24.0,24.0,98612304.0
2025-12-08T02:36:18.957901,0,1751,0.0,0.0,24.0,24.0,98612304.0
2025-12-08T02:36:18.958904,0,1752,0.0,0.0,24.0,24.0,98613281.0
2025-12-08T02:36:18.958904,0,1753,0.0,0.0,24.0,24.0,98613281.0
2025-12-08T02:36:18.959905,0,1754,0.0,0.0,24.0,24.0,98613281.0
2025-12-08T02:36:18.959905,0,1755,0.0,0.0,24.0,24.0,98614257.0
2025-12-08T02:36:18.960912,0,1756,0.0,0.0,24.0,24.0,98614257.0
2025-12-08T02:36:18.960912,0,1757,0.0,0.0,24.0,24.0,98614257.0
2025-12-08T02:36:18.960912,0,1758,0.0,0.0,24.0,24.0,98614257.0
2025-12-08T02:36:18.961899,0,1759,0.0,0.0,24.0,24.0,98614257.0
2025-12-08T02:36:18.962858,0,1760,0.0,0.0,24.0,24.0,98615234.0
2025-12-08T02:36:18.962858,0,1761,0.0,0.0,24.0,24.0,98615234.0
2025-12-08T02:36:18.962858,0,1762,0.0,0.0,24.0,24.0,98615234.0
2025-12-08T02:36:18.963904,0,1763,0.0,0.0,24.0,24.0,98615234.0
2025-12-08T02:36:18.963904,0,1764,0.0,0.0,24.0,24.0,98616210.0
2025-12-08T02:36:18.964897,0,1765,0.0,0.0,24.0,24.0,98616210.0
2025-12-08T02:36:18.964897,0,1766,0.0,0.0,24.0,24.0,98616210.0
2025-12-08T02:36:18.964897,0,1767,0.0,0.0,24.0,24.0,98616210.0
2025-12-08T02:36:18.965895,0,1768,0.0,0.0,24.0,24.0,98616210.0
2025-12-08T02:36:18.965895,0,1769,0.0,0.0,24.0,24.0,98617187.0
2025-12-08T02:36:18.966896,0,1770,0.0,0.0,24.0,24.0,98617187.0
2025-12-08T02:36:18.966896,0,1771,0.0,0.0,24.0,24.0,98617187.0
2025-12-08T02:36:18.967902,0,1772,0.0,0.0,24.0,24.0,98617187.0
2025-12-08T02:36:18.967902,0,1773,0.0,0.0,24.0,24.0,98618164.0
2025-12-08T02:36:18.967902,0,1774,0.0,0.0,24.0,24.0,98618164.0
2025-12-08T02:36:18.968895,0,1775,0.0,0.0,24.0,24.0,98618164.0
2025-12-08T02:36:18.968895,0,1776,0.0,0.0,24.0,24.0,98618164.0
2025-12-08T02:36:18.969905,0,1777,0.0,0.0,24.0,24.0,98619140.0
2025-12-08T02:36:18.969905,0,1778,0.0,0.0,24.0,24.0,98619140.0
2025-12-08T02:36:18.969905,0,1779,0.0,0.0,24.0,24.0,98619140.0
2025-12-08T02:36:18.970987,0,1780,0.0,0.0,24.0,24.0,98619140.0
2025-12-08T02:36:18.970987,0,1781,0.0,0.0,24.0,24.0,98619140.0
2025-12-08T02:36:18.972037,0,1782,0.0,0.0,24.0,24.0,98620117.0
2025-12-08T02:36:18.972037,0,1783,0.0,0.0,24.0,24.0,98620117.0
2025-12-08T02:36:18.972037,0,1784,0.0,0.0,24.0,24.0,98620117.0
2025-12-08T02:36:18.973036,0,1785,0.0,0.0,24.0,24.0,98620117.0
2025-12-08T02:36:18.973036,0,1786,0.0,0.0,24.0,24.0,98621093.0
2025-12-08T02:36:18.974036,0,1787,0.0,0.0,24.0,24.0,98621093.0
2025-12-08T02:36:18.974036,0,1788,0.0,0.0,24.0,24.0,98621093.0
2025-12-08T02:36:18.974036,0,1789,0.0,0.0,24.0,24.0,98622070.0
2025-12-08T02:36:18.975045,0,1790,0.0,0.0,24.0,24.0,98622070.0
2025-12-08T02:36:18.975045,0,1791,0.0,0.0,24.0,24.0,98622070.0
2025-12-08T02:36:18.976044,0,1792,0.0,0.0,24.0,24.0,98622070.0
2025-12-08T02:36:18.976044,0,1793,0.0,0.0,24.0,24.0,98623046.0
2025-12-08T02:36:18.976044,0,1794,0.0,0.0,24.0,24.0,98623046.0
2025-12-08T02:36:18.977039,0,1795,0.0,0.0,24.0,24.0,98623046.0
2025-12-08T02:36:18.978043,0,1796,0.0,0.0,24.0,24.0,98623046.0
2025-12-08T02:36:18.978043,0,1797,0.0,0.0,24.0,24.0,98624023.0
2025-12-08T02:36:18.978991,0,1798,0.0,0.0,24.0,24.0,98624023.0
2025-12-08T02:36:18.978991,0,1799,0.0,0.0,24.0,24.0,98624023.0
2025-12-08T02:36:18.979994,0,1800,0.0,0.0,24.0,24.0,98624023.0
2025-12-08T02:36:18.979994,0,1801,0.0,0.0,24.0,24.0,98625000.0
2025-12-08T02:36:18.979994,0,1802,0.0,0.0,24.0,24.0,98625000.0
2025-12-08T02:36:18.980991,0,1803,0.0,0.0,24.0,24.0,98625000.0
2025-12-08T02:36:18.980991,0,1804,0.0,0.0,24.0,24.0,98625976.0
2025-12-08T02:36:18.981991,0,1805,0.0,0.0,24.0,24.0,98625976.0
2025-12-08T02:36:18.981991,0,1806,0.0,0.0,24.0,24.0,98625976.0
2025-12-08T02:36:18.982991,0,1807,0.0,0.0,24.0,24.0,98625976.0
2025-12-08T02:36:18.982991,0,1808,0.0,0.0,24.0,24.0,98625976.0
2025-12-08T02:36:18.982991,0,1809,0.0,0.0,24.0,24.0,98626953.0
2025-12-08T02:36:18.984037,0,1810,0.0,0.0,24.0,24.0,98626953.0
2025-12-08T02:36:18.984037,0,1811,0.0,0.0,24.0,24.0,98626953.0
2025-12-08T02:36:18.985043,0,1812,0.0,0.0,24.0,24.0,98626953.0
2025-12-08T02:36:18.985043,0,1813,0.0,0.0,24.0,24.0,98626953.0
2025-12-08T02:36:18.986035,0,1814,0.0,0.0,24.0,24.0,98627929.0
2025-12-08T02:36:18.986035,0,1815,0.0,0.0,24.0,24.0,98627929.0
2025-12-08T02:36:18.986035,0,1816,0.0,0.0,24.0,24.0,98627929.0
2025-12-08T02:36:18.987220,0,1817,0.0,0.0,24.0,24.0,98627929.0
2025-12-08T02:36:18.987220,0,1818,0.0,0.0,24.0,24.0,98628906.0
2025-12-08T02:36:18.987220,0,1819,0.0,0.0,24.0,24.0,98628906.0
2025-12-08T02:36:18.988265,0,1820,0.0,0.0,24.0,24.0,98628906.0
2025-12-08T02:36:18.988265,0,1821,0.0,0.0,24.0,24.0,98628906.0
2025-12-08T02:36:18.989261,0,1822,0.0,0.0,24.0,24.0,98629882.0
2025-12-08T02:36:18.989261,0,1823,0.0,0.0,24.0,24.0,98629882.0
2025-12-08T02:36:18.989261,0,1824,0.0,0.0,24.0,24.0,98629882.0
2025-12-08T02:36:18.990262,0,1825,0.0,0.0,24.0,24.0,98629882.0
2025-12-08T02:36:18.990262,0,1826,0.0,0.0,24.0,24.0,98630859.0
2025-12-08T02:36:18.991264,0,1827,0.0,0.0,24.0,24.0,98630859.0
2025-12-08T02:36:18.991264,0,1828,0.0,0.0,24.0,24.0,98630859.0
2025-12-08T02:36:18.992338,0,1829,0.0,0.0,24.0,24.0,98630859.0
2025-12-08T02:36:18.992886,0,1830,0.0,0.0,24.0,24.0,98630859.0
2025-12-08T02:36:18.992886,0,1831,0.0,0.0,24.0,24.0,98631835.0
2025-12-08T02:36:18.992886,0,1832,0.0,0.0,24.0,24.0,98631835.0
2025-12-08T02:36:18.994050,0,1833,0.0,0.0,24.0,24.0,98631835.0
2025-12-08T02:36:18.994050,0,1834,0.0,0.0,24.0,24.0,98631835.0
2025-12-08T02:36:18.995056,0,1835,0.0,0.0,24.0,24.0,98632812.0
2025-12-08T02:36:18.995056,0,1836,0.0,0.0,24.0,24.0,98632812.0
2025-12-08T02:36:18.996001,0,1837,0.0,0.0,24.0,24.0,98632812.0
2025-12-08T02:36:18.996001,0,1838,0.0,0.0,24.0,24.0,98632812.0
2025-12-08T02:36:18.996001,0,1839,0.0,0.0,24.0,24.0,98633789.0
2025-12-08T02:36:18.997048,0,1840,0.0,0.0,24.0,24.0,98633789.0
2025-12-08T02:36:18.997048,0,1841,0.0,0.0,24.0,24.0,98633789.0
2025-12-08T02:36:18.998057,0,1842,0.0,0.0,24.0,24.0,98633789.0
2025-12-08T02:36:18.998057,0,1843,0.0,0.0,24.0,24.0,98633789.0
2025-12-08T02:36:18.998057,0,1844,0.0,0.0,24.0,24.0,98634765.0
2025-12-08T02:36:18.999046,0,1845,0.0,0.0,24.0,24.0,98634765.0
2025-12-08T02:36:18.999046,0,1846,0.0,0.0,24.0,24.0,98634765.0
2025-12-08T02:36:19.000052,0,1847,0.0,0.0,24.0,24.0,98634765.0
2025-12-08T02:36:19.000052,0,1848,0.0,0.0,24.0,24.0,98635742.0
2025-12-08T02:36:19.001051,0,1849,0.0,0.0,24.0,24.0,98635742.0
2025-12-08T02:36:19.001051,0,1850,0.0,0.0,24.0,24.0,98635742.0
2025-12-08T02:36:19.002048,0,1851,0.0,0.0,24.0,24.0,98635742.0
2025-12-08T02:36:19.002048,0,1852,0.0,0.0,24.0,24.0,98636718.0
2025-12-08T02:36:19.002048,0,1853,0.0,0.0,24.0,24.0,98636718.0
2025-12-08T02:36:19.003053,0,1854,0.0,0.0,24.0,24.0,98636718.0
2025-12-08T02:36:19.003053,0,1855,0.0,0.0,24.0,24.0,98636718.0
2025-12-08T02:36:19.004117,0,1856,0.0,0.0,24.0,24.0,98637695.0
2025-12-08T02:36:19.004117,0,1857,0.0,0.0,24.0,24.0,98637695.0
2025-12-08T02:36:19.004117,0,1858,0.0,0.0,24.0,24.0,98637695.0
2025-12-08T02:36:19.005167,0,1859,0.0,0.0,24.0,24.0,98637695.0
2025-12-08T02:36:19.005167,0,1860,0.0,0.0,24.0,24.0,98638671.0
2025-12-08T02:36:19.006164,0,1861,0.0,0.0,24.0,24.0,98638671.0
2025-12-08T02:36:19.006164,0,1862,0.0,0.0,24.0,24.0,98638671.0
2025-12-08T02:36:19.007177,0,1863,0.0,0.0,24.0,24.0,98638671.0
2025-12-08T02:36:19.007177,0,1864,0.0,0.0,24.0,24.0,98639648.0
2025-12-08T02:36:19.007177,0,1865,0.0,0.0,24.0,24.0,98639648.0
2025-12-08T02:36:19.008166,0,1866,0.0,0.0,24.0,24.0,98639648.0
2025-12-08T02:36:19.009124,0,1867,0.0,0.0,24.0,24.0,98639648.0
2025-12-08T02:36:19.009124,0,1868,0.0,0.0,24.0,24.0,98640625.0
2025-12-08T02:36:19.010124,0,1869,0.0,0.0,24.0,24.0,98640625.0
2025-12-08T02:36:19.010124,0,1870,0.0,0.0,24.0,24.0,98640625.0
2025-12-08T02:36:19.011172,0,1871,0.0,0.0,24.0,24.0,98640625.0
2025-12-08T02:36:19.011172,0,1872,0.0,0.0,24.0,24.0,98641601.0
2025-12-08T02:36:19.012168,0,1873,0.0,0.0,24.0,24.0,98641601.0
2025-12-08T02:36:19.012168,0,1874,0.0,0.0,24.0,24.0,98641601.0
2025-12-08T02:36:19.013169,0,1875,0.0,0.0,24.0,24.0,98641601.0
2025-12-08T02:36:19.013169,0,1876,0.0,0.0,24.0,24.0,98641601.0
2025-12-08T02:36:19.013169,0,1877,0.0,0.0,24.0,24.0,98642578.0
2025-12-08T02:36:19.014173,0,1878,0.0,0.0,24.0,24.0,98642578.0
2025-12-08T02:36:19.014173,0,1879,0.0,0.0,24.0,24.0,98642578.0
2025-12-08T02:36:19.015173,0,1880,0.0,0.0,24.0,24.0,98642578.0
2025-12-08T02:36:19.015173,0,1881,0.0,0.0,24.0,24.0,98643554.0
2025-12-08T02:36:19.016172,0,1882,0.0,0.0,24.0,24.0,98643554.0
2025-12-08T02:36:19.016172,0,1883,0.0,0.0,24.0,24.0,98643554.0
2025-12-08T02:36:19.016172,0,1884,0.0,0.0,24.0,24.0,98643554.0
2025-12-08T02:36:19.017170,0,1885,0.0,0.0,24.0,24.0,98644531.0
2025-12-08T02:36:19.017170,0,1886,0.0,0.0,24.0,24.0,98644531.0
2025-12-08T02:36:19.018167,0,1887,0.0,0.0,24.0,24.0,98644531.0
2025-12-08T02:36:19.018167,0,1888,0.0,0.0,24.0,24.0,98644531.0
2025-12-08T02:36:19.019170,0,1889,0.0,0.0,24.0,24.0,98644531.0
2025-12-08T02:36:19.019170,0,1890,0.0,0.0,24.0,24.0,98645507.0
2025-12-08T02:36:19.019170,0,1891,0.0,0.0,24.0,24.0,98645507.0
2025-12-08T02:36:19.020248,0,1892,0.0,0.0,24.0,24.0,98645507.0
2025-12-08T02:36:19.020248,0,1893,0.0,0.0,24.0,24.0,98645507.0
2025-12-08T02:36:19.021306,0,1894,0.0,0.0,24.0,24.0,98646484.0
2025-12-08T02:36:19.021306,0,1895,0.0,0.0,24.0,24.0,98646484.0
2025-12-08T02:36:19.021306,0,1896,0.0,0.0,24.0,24.0,98646484.0
2025-12-08T02:36:19.022305,0,1897,0.0,0.0,24.0,24.0,98646484.0
2025-12-08T02:36:19.022305,0,1898,0.0,0.0,24.0,24.0,98647460.0
2025-12-08T02:36:19.023304,0,1899,0.0,0.0,24.0,24.0,98647460.0
2025-12-08T02:36:19.024258,0,1900,0.0,0.0,24.0,24.0,98647460.0
2025-12-08T02:36:19.024258,0,1901,0.0,0.0,24.0,24.0,98647460.0
2025-12-08T02:36:19.025254,0,1902,0.0,0.0,24.0,24.0,98647460.0
2025-12-08T02:36:19.025254,0,1903,0.0,0.0,24.0,24.0,98648437.0
2025-12-08T02:36:19.026252,0,1904,0.0,0.0,24.0,24.0,98648437.0
2025-12-08T02:36:19.027260,0,1905,0.0,0.0,24.0,24.0,98648437.0
2025-12-08T02:36:19.027260,0,1906,0.0,0.0,24.0,24.0,98648437.0
2025-12-08T02:36:19.028257,0,1907,0.0,0.0,24.0,24.0,98649414.0
2025-12-08T02:36:19.028257,0,1908,0.0,0.0,24.0,24.0,98649414.0
2025-12-08T02:36:19.029257,0,1909,0.0,0.0,24.0,24.0,98649414.0
2025-12-08T02:36:19.029257,0,1910,0.0,0.0,24.0,24.0,98649414.0
2025-12-08T02:36:19.030257,0,1911,0.0,0.0,24.0,24.0,98650390.0
2025-12-08T02:36:19.030257,0,1912,0.0,0.0,24.0,24.0,98650390.0
2025-12-08T02:36:19.031254,0,1913,0.0,0.0,24.0,24.0,98650390.0
2025-12-08T02:36:19.031254,0,1914,0.0,0.0,24.0,24.0,98650390.0
2025-12-08T02:36:19.032253,0,1915,0.0,0.0,24.0,24.0,98651367.0
2025-12-08T02:36:19.032253,0,1916,0.0,0.0,24.0,24.0,98651367.0
2025-12-08T02:36:19.033253,0,1917,0.0,0.0,24.0,24.0,98651367.0
2025-12-08T02:36:19.033253,0,1918,0.0,0.0,24.0,24.0,98651367.0
2025-12-08T02:36:19.033253,0,1919,0.0,0.0,24.0,24.0,98652343.0
2025-12-08T02:36:19.034254,0,1920,0.0,0.0,24.0,24.0,98652343.0
