timestamp,window,sample,ir_raw,red_raw,true_hr,true_spo2
2026-02-17T16:50:45.581504,0,0,108389,92134,90.0,98.0
2026-02-17T16:50:45.581661,0,1,108420,92175,90.0,98.0
2026-02-17T16:50:45.581667,0,2,108432,92179,90.0,98.0
2026-02-17T16:50:45.581672,0,3,108351,92135,90.0,98.0
2026-02-17T16:50:45.581676,0,4,108440,92249,90.0,98.0
2026-02-17T16:50:45.581679,0,5,108490,92240,90.0,98.0
2026-02-17T16:50:45.581682,0,6,108434,92204,90.0,98.0
2026-02-17T16:50:45.581685,0,7,108489,92319,90.0,98.0
2026-02-17T16:50:45.581689,0,8,108413,92294,90.0,98.0
2026-02-17T16:50:45.581692,0,9,108451,92249,90.0,98.0
2026-02-17T16:50:45.581695,0,10,108504,92289,90.0,98.0
2026-02-17T16:50:45.581702,0,11,108487,92289,90.0,98.0
2026-02-17T16:50:45.581706,0,12,108492,92299,90.0,98.0
2026-02-17T16:50:45.581711,0,13,108485,92296,90.0,98.0
2026-02-17T16:50:45.581714,0,14,108578,92344,90.0,98.0
2026-02-17T16:50:45.581717,0,15,108608,92375,90.0,98.0
2026-02-17T16:50:45.581721,0,16,108648,92360,90.0,98.0
2026-02-17T16:50:45.581724,0,17,108763,92440,90.0,98.0
2026-02-17T16:50:45.672017,0,18,108783,92435,90.0,98.0
2026-02-17T16:50:45.801618,0,19,108858,92475,90.0,98.0
2026-02-17T16:50:45.911554,0,20,108870,92482,90.0,98.0
2026-02-17T16:50:46.102844,0,21,108928,92505,90.0,98.0
2026-02-17T16:50:46.272389,0,22,108942,92517,90.0,98.0
2026-02-17T16:50:46.399869,0,23,108911,92470,90.0,98.0
2026-02-17T16:50:46.571440,0,24,108955,92507,90.0,98.0
2026-02-17T16:50:46.758349,0,25,108903,92472,90.0,98.0
2026-02-17T16:50:46.883337,0,26,108951,92459,90.0,98.0
2026-02-17T16:50:47.051661,0,27,109002,92489,90.0,98.0
2026-02-17T16:50:47.179504,0,28,108942,92482,90.0,98.0
2026-02-17T16:50:47.351453,0,29,108970,92463,90.0,98.0
2026-02-17T16:50:47.542227,0,30,109005,92481,90.0,98.0
2026-02-17T16:50:47.651455,0,31,109028,92495,90.0,98.0
2026-02-17T16:50:47.842336,0,32,109002,92446,90.0,98.0
2026-02-17T16:50:48.011571,0,33,109010,92434,90.0,98.0
2026-02-17T16:50:48.140216,0,34,109032,92439,90.0,98.0
2026-02-17T16:50:48.311802,0,35,109086,92490,90.0,98.0
2026-02-17T16:50:48.500843,0,36,109040,92468,90.0,98.0
2026-02-17T16:50:48.611677,0,37,109006,92411,90.0,98.0
2026-02-17T16:50:48.799553,0,38,108991,92385,90.0,98.0
2026-02-17T16:50:48.971316,0,39,109070,92443,90.0,98.0
2026-02-17T16:50:49.091499,0,40,109042,92440,90.0,98.0
2026-02-17T16:50:49.283176,0,41,109062,92454,90.0,98.0
2026-02-17T16:50:49.451937,0,42,109062,92443,90.0,98.0
2026-02-17T16:50:49.579702,0,43,109081,92439,90.0,98.0
2026-02-17T16:50:49.766238,0,44,109073,92447,90.0,98.0
2026-02-17T16:50:49.939614,0,45,109068,92455,90.0,98.0
2026-02-17T16:50:50.124471,0,46,109019,92419,90.0,98.0
2026-02-17T16:50:50.231482,0,47,108988,92415,90.0,98.0
2026-02-17T16:50:50.421932,0,48,108989,92410,90.0,98.0
2026-02-17T16:50:50.545449,0,49,108981,92388,90.0,98.0
2026-02-17T16:50:53.055271,1,0,108920,92373,90.0,98.0
2026-02-17T16:50:53.055300,1,1,108954,92360,90.0,98.0
2026-02-17T16:50:53.055308,1,2,108978,92383,90.0,98.0
2026-02-17T16:50:53.055314,1,3,108987,92394,90.0,98.0
2026-02-17T16:50:53.055319,1,4,108947,92385,90.0,98.0
2026-02-17T16:50:53.055323,1,5,108871,92353,90.0,98.0
2026-02-17T16:50:53.055328,1,6,108956,92389,90.0,98.0
2026-02-17T16:50:53.055334,1,7,108999,92402,90.0,98.0
2026-02-17T16:50:53.055340,1,8,108974,92408,90.0,98.0
2026-02-17T16:50:53.055346,1,9,108983,92401,90.0,98.0
2026-02-17T16:50:53.055359,1,10,108996,92432,90.0,98.0
2026-02-17T16:50:53.055364,1,11,109060,92423,90.0,98.0
2026-02-17T16:50:53.055370,1,12,109053,92433,90.0,98.0
2026-02-17T16:50:53.055379,1,13,109024,92401,90.0,98.0
2026-02-17T16:50:53.055387,1,14,109030,92403,90.0,98.0
2026-02-17T16:50:53.241872,1,15,109066,92413,90.0,98.0
2026-02-17T16:50:53.366588,1,16,109105,92429,90.0,98.0
2026-02-17T16:50:53.471670,1,17,109076,92418,90.0,98.0
2026-02-17T16:50:53.598740,1,18,109109,92443,90.0,98.0
2026-02-17T16:50:53.786883,1,19,109125,92443,90.0,98.0
2026-02-17T16:50:53.891768,1,20,109146,92436,90.0,98.0
2026-02-17T16:50:54.083463,1,21,109147,92446,90.0,98.0
2026-02-17T16:50:54.252262,1,22,109173,92458,90.0,98.0
2026-02-17T16:50:54.380180,1,23,109204,92474,90.0,98.0
2026-02-17T16:50:54.612169,1,24,109226,92478,90.0,98.0
2026-02-17T16:50:54.742707,1,25,109228,92470,90.0,98.0
2026-02-17T16:50:54.867234,1,26,109241,92481,90.0,98.0
2026-02-17T16:50:55.032370,1,27,109258,92498,90.0,98.0
2026-02-17T16:50:55.224208,1,28,109288,92480,90.0,98.0
2026-02-17T16:50:55.331461,1,29,109260,92481,90.0,98.0
2026-02-17T16:50:55.520533,1,30,109286,92483,90.0,98.0
2026-02-17T16:50:55.646175,1,31,109306,92497,90.0,98.0
2026-02-17T16:50:55.818096,1,32,109334,92491,90.0,98.0
2026-02-17T16:50:56.004343,1,33,109306,92480,90.0,98.0
2026-02-17T16:50:56.112235,1,34,109300,92479,90.0,98.0
2026-02-17T16:50:56.299977,1,35,109343,92475,90.0,98.0
2026-02-17T16:50:56.471662,1,36,109368,92472,90.0,98.0
2026-02-17T16:50:56.592120,1,37,109319,92443,90.0,98.0
2026-02-17T16:50:56.844459,1,38,109265,92440,90.0,98.0
2026-02-17T16:50:56.952100,1,39,109299,92452,90.0,98.0
2026-02-17T16:50:57.079819,1,40,109315,92460,90.0,98.0
2026-02-17T16:50:57.252193,1,41,109279,92441,90.0,98.0
2026-02-17T16:50:57.500653,1,42,109245,92430,90.0,98.0
2026-02-17T16:50:57.625939,1,43,109252,92419,90.0,98.0
2026-02-17T16:50:57.731877,1,44,109253,92401,90.0,98.0
2026-02-17T16:50:57.921597,1,45,109292,92429,90.0,98.0
2026-02-17T16:50:58.031856,1,46,109267,92395,90.0,98.0
2026-02-17T16:51:05.847628,2,0,109177,92367,76.0,98.0
2026-02-17T16:51:05.847664,2,1,109180,92345,76.0,98.0
2026-02-17T16:51:05.847672,2,2,109184,92343,76.0,98.0
2026-02-17T16:51:05.847735,2,3,109195,92372,76.0,98.0
2026-02-17T16:51:05.847742,2,4,109182,92364,76.0,98.0
2026-02-17T16:51:05.847745,2,5,109133,92371,76.0,98.0
2026-02-17T16:51:05.847749,2,6,109164,92361,76.0,98.0
2026-02-17T16:51:05.847752,2,7,109186,92362,76.0,98.0
2026-02-17T16:51:05.847756,2,8,109224,92394,76.0,98.0
2026-02-17T16:51:05.847759,2,9,109219,92397,76.0,98.0
2026-02-17T16:51:05.847808,2,10,109209,92389,76.0,98.0
2026-02-17T16:51:05.847818,2,11,109240,92391,76.0,98.0
2026-02-17T16:51:05.847821,2,12,109243,92416,76.0,98.0
2026-02-17T16:51:05.847825,2,13,109239,92385,76.0,98.0
2026-02-17T16:51:05.847828,2,14,109221,92382,76.0,98.0
2026-02-17T16:51:05.847832,2,15,109163,92317,76.0,98.0
2026-02-17T16:51:05.847835,2,16,109160,92308,76.0,98.0
2026-02-17T16:51:05.847838,2,17,109159,92331,76.0,98.0
2026-02-17T16:51:05.847842,2,18,109007,92273,76.0,98.0
2026-02-17T16:51:05.847845,2,19,108795,92203,76.0,98.0
2026-02-17T16:51:05.847848,2,20,108808,92185,76.0,98.0
2026-02-17T16:51:05.847852,2,21,108719,92123,76.0,98.0
2026-02-17T16:51:05.847855,2,22,108699,92098,76.0,98.0
2026-02-17T16:51:05.847860,2,23,108692,92069,76.0,98.0
2026-02-17T16:51:05.847864,2,24,108696,91923,76.0,98.0
2026-02-17T16:51:05.847867,2,25,108481,91624,76.0,98.0
2026-02-17T16:51:05.847870,2,26,108174,91541,76.0,98.0
2026-02-17T16:51:05.847873,2,27,108065,91495,76.0,98.0
2026-02-17T16:51:05.847877,2,28,107882,91385,76.0,98.0
2026-02-17T16:51:05.847880,2,29,107958,91405,76.0,98.0
2026-02-17T16:51:05.847883,2,30,108104,91453,76.0,98.0
2026-02-17T16:51:05.847888,2,31,107956,91398,76.0,98.0
2026-02-17T16:51:05.847891,2,32,108000,91468,76.0,98.0
2026-02-17T16:51:05.847894,2,33,107950,91438,76.0,98.0
2026-02-17T16:51:05.847898,2,34,107912,91507,76.0,98.0
2026-02-17T16:51:05.847901,2,35,107905,91519,76.0,98.0
2026-02-17T16:51:05.847904,2,36,107925,91518,76.0,98.0
2026-02-17T16:51:05.847907,2,37,108066,91606,76.0,98.0
2026-02-17T16:51:05.847911,2,38,108070,91591,76.0,98.0
2026-02-17T16:51:05.847914,2,39,108159,91730,76.0,98.0
2026-02-17T16:51:06.019272,2,40,108145,91658,76.0,98.0
2026-02-17T16:51:06.313134,2,41,108285,91695,76.0,98.0
2026-02-17T16:51:06.671843,2,42,108377,91750,76.0,98.0
2026-02-17T16:51:06.792496,2,43,108419,91796,76.0,98.0
2026-02-17T16:51:07.046066,2,44,108444,91803,76.0,98.0
2026-02-17T16:51:07.151703,2,45,108383,91770,76.0,98.0
2026-02-17T16:51:07.342064,2,46,108368,91732,76.0,98.0
2026-02-17T16:51:07.466241,2,47,108391,91779,76.0,98.0
2026-02-17T16:51:07.632956,2,48,108426,91771,76.0,98.0
2026-02-17T16:51:07.761946,2,49,108458,91795,76.0,98.0
2026-02-17T16:51:07.992648,2,50,108431,91781,76.0,98.0
2026-02-17T16:51:08.182837,2,51,108423,91781,76.0,98.0
2026-02-17T16:51:08.307046,2,52,108452,91804,76.0,98.0
2026-02-17T16:51:08.412468,2,53,108478,91830,76.0,98.0
2026-02-17T16:51:08.604068,2,54,108482,91819,76.0,98.0
2026-02-17T16:51:08.772699,2,55,108489,91806,76.0,98.0
2026-02-17T16:51:08.962206,2,56,108478,91820,76.0,98.0
2026-02-17T16:51:09.086617,2,57,108518,91838,76.0,98.0
2026-02-17T16:51:09.192233,2,58,108546,91830,76.0,98.0
2026-02-17T16:51:09.445590,2,59,108509,91832,76.0,98.0
2026-02-17T16:51:09.553378,2,60,108519,91847,76.0,98.0
2026-02-17T16:51:09.679183,2,61,108557,91847,76.0,98.0
2026-02-17T16:51:09.866484,2,62,108568,91871,76.0,98.0
2026-02-17T16:51:10.222350,2,63,108582,91871,76.0,98.0
2026-02-17T16:51:10.347076,2,64,108566,91865,76.0,98.0
2026-02-17T16:51:10.579973,2,65,108584,91888,76.0,98.0
2026-02-17T16:51:10.705004,2,66,108607,91895,76.0,98.0
2026-02-17T16:51:14.437486,3,0,108640,91922,81.0,98.0
2026-02-17T16:51:14.437513,3,1,108536,91923,81.0,98.0
2026-02-17T16:51:14.437518,3,2,108524,91914,81.0,98.0
2026-02-17T16:51:14.437522,3,3,108497,91880,81.0,98.0
2026-02-17T16:51:14.437525,3,4,108516,91925,81.0,98.0
2026-02-17T16:51:14.437528,3,5,108525,91928,81.0,98.0
2026-02-17T16:51:14.437532,3,6,108462,91932,81.0,98.0
2026-02-17T16:51:14.437550,3,7,108489,91944,81.0,98.0
2026-02-17T16:51:14.437553,3,8,108449,91938,81.0,98.0
2026-02-17T16:51:14.437556,3,9,108373,91877,81.0,98.0
2026-02-17T16:51:14.437559,3,10,108337,91873,81.0,98.0
2026-02-17T16:51:14.437565,3,11,108287,91829,81.0,98.0
2026-02-17T16:51:14.437570,3,12,108361,91860,81.0,98.0
2026-02-17T16:51:14.437573,3,13,108373,91865,81.0,98.0
2026-02-17T16:51:14.437577,3,14,108371,91843,81.0,98.0
2026-02-17T16:51:14.437581,3,15,108353,91852,81.0,98.0
2026-02-17T16:51:14.437607,3,16,108307,91817,81.0,98.0
2026-02-17T16:51:14.437611,3,17,108308,91843,81.0,98.0
2026-02-17T16:51:14.437615,3,18,108301,92066,81.0,98.0
2026-02-17T16:51:14.437618,3,19,108074,92128,81.0,98.0
2026-02-17T16:51:14.437621,3,20,108153,92087,81.0,98.0
2026-02-17T16:51:14.437625,3,21,108218,92123,81.0,98.0
2026-02-17T16:51:14.484085,3,22,108302,92122,81.0,98.0
2026-02-17T16:51:14.652733,3,23,108392,92167,81.0,98.0
2026-02-17T16:51:14.842632,3,24,108319,92095,81.0,98.0
2026-02-17T16:51:14.967082,3,25,108306,92108,81.0,98.0
2026-02-17T16:51:15.199173,3,26,108240,92028,81.0,98.0
2026-02-17T16:51:15.324103,3,27,108267,92018,81.0,98.0
2026-02-17T16:51:15.432793,3,28,108322,92059,81.0,98.0
2026-02-17T16:51:15.620062,3,29,108300,92049,81.0,98.0
2026-02-17T16:51:15.805257,3,30,108253,92014,81.0,98.0
2026-02-17T16:51:15.972604,3,31,108293,92032,81.0,98.0
2026-02-17T16:51:16.099104,3,32,108365,92186,81.0,98.0
2026-02-17T16:51:16.223427,3,33,108324,92144,81.0,98.0
2026-02-17T16:51:16.392924,3,34,108130,92022,81.0,98.0
2026-02-17T16:51:16.583838,3,35,108045,91947,81.0,98.0
2026-02-17T16:51:16.692647,3,36,108069,91962,81.0,98.0
2026-02-17T16:51:16.877715,3,37,108069,91924,81.0,98.0
2026-02-17T16:51:17.127560,3,38,108081,91975,81.0,98.0
2026-02-17T16:51:17.232012,3,39,108041,91972,81.0,98.0
2026-02-17T16:51:17.599081,3,40,107910,91920,81.0,98.0
2026-02-17T16:51:17.724456,3,41,108169,92075,81.0,98.0
2026-02-17T16:51:18.021634,3,42,108234,92101,81.0,98.0
2026-02-17T16:51:18.192541,3,43,108265,92105,81.0,98.0
2026-02-17T16:51:18.312628,3,44,108200,92069,81.0,98.0
2026-02-17T16:51:18.441767,3,45,108178,92074,81.0,98.0
2026-02-17T16:51:18.732703,3,46,108210,92060,81.0,98.0
2026-02-17T16:51:18.859609,3,47,108255,92126,81.0,98.0
2026-02-17T16:51:18.985417,3,48,108222,92116,81.0,98.0
2026-02-17T16:51:19.152021,3,49,108242,92110,81.0,98.0
2026-02-17T16:51:19.343218,3,50,108147,92050,81.0,98.0
2026-02-17T16:51:21.299244,4,0,108121,92055,74.0,98.0
2026-02-17T16:51:21.299265,4,1,108133,92033,74.0,98.0
2026-02-17T16:51:21.299269,4,2,108092,92000,74.0,98.0
2026-02-17T16:51:21.299273,4,3,108003,91996,74.0,98.0
2026-02-17T16:51:21.299276,4,4,108130,92088,74.0,98.0
2026-02-17T16:51:21.299280,4,5,108184,92067,74.0,98.0
2026-02-17T16:51:21.299283,4,6,108112,92043,74.0,98.0
2026-02-17T16:51:21.299286,4,7,108015,92003,74.0,98.0
2026-02-17T16:51:21.299308,4,8,107931,91956,74.0,98.0
2026-02-17T16:51:21.299313,4,9,107925,91989,74.0,98.0
2026-02-17T16:51:21.299319,4,10,107907,91975,74.0,98.0
2026-02-17T16:51:21.299325,4,11,107981,92006,74.0,98.0
2026-02-17T16:51:21.372225,4,12,107912,91999,74.0,98.0
2026-02-17T16:51:21.501637,4,13,108111,92089,74.0,98.0
2026-02-17T16:51:21.673232,4,14,108166,92106,74.0,98.0
2026-02-17T16:51:21.792470,4,15,108284,92170,74.0,98.0
2026-02-17T16:51:22.107999,4,16,108340,92227,74.0,98.0
2026-02-17T16:51:22.212508,4,17,108403,92245,74.0,98.0
2026-02-17T16:51:22.341807,4,18,108464,92306,74.0,98.0
2026-02-17T16:51:22.464966,4,19,108580,92343,74.0,98.0
2026-02-17T16:51:22.762051,4,20,108676,92423,74.0,98.0
2026-02-17T16:51:22.886808,4,21,108708,92437,74.0,98.0
2026-02-17T16:51:23.052028,4,22,108747,92476,74.0,98.0
2026-02-17T16:51:23.179898,4,23,108764,92502,74.0,98.0
2026-02-17T16:51:23.303940,4,24,108761,92482,74.0,98.0
2026-02-17T16:51:23.412349,4,25,108669,92412,74.0,98.0
2026-02-17T16:51:23.533456,4,26,108611,92399,74.0,98.0
2026-02-17T16:51:23.787588,4,27,108651,92515,74.0,98.0
2026-02-17T16:51:23.958229,4,28,108542,92478,74.0,98.0
2026-02-17T16:51:24.192962,4,29,108610,92498,74.0,98.0
2026-02-17T16:51:24.380517,4,30,108523,92406,74.0,98.0
2026-02-17T16:51:24.554137,4,31,108401,92322,74.0,98.0
2026-02-17T16:51:24.672809,4,32,108403,92328,74.0,98.0
2026-02-17T16:51:24.865188,4,33,108503,92410,74.0,98.0
2026-02-17T16:51:24.973224,4,34,108476,92381,74.0,98.0
2026-02-17T16:51:25.163099,4,35,108474,92386,74.0,98.0
2026-02-17T16:51:25.392906,4,36,108494,92424,74.0,98.0
2026-02-17T16:51:25.521880,4,37,108520,92435,74.0,98.0
2026-02-17T16:51:25.644339,4,38,108534,92412,74.0,98.0
2026-02-17T16:51:25.812334,4,39,108538,92403,74.0,98.0
2026-02-17T16:51:25.939342,4,40,108491,92395,74.0,98.0
2026-02-17T16:51:26.112222,4,41,108444,92391,74.0,98.0
2026-02-17T16:51:26.300067,4,42,108475,92391,74.0,98.0
2026-02-17T16:51:28.722062,5,0,108496,92407,76.0,98.0
2026-02-17T16:51:28.722095,5,1,108567,92435,76.0,98.0
2026-02-17T16:51:28.722103,5,2,108554,92443,76.0,98.0
2026-02-17T16:51:28.722110,5,3,108581,92469,76.0,98.0
2026-02-17T16:51:28.722116,5,4,108615,92500,76.0,98.0
2026-02-17T16:51:28.722122,5,5,108667,92504,76.0,98.0
2026-02-17T16:51:28.722129,5,6,108738,92549,76.0,98.0
2026-02-17T16:51:28.722135,5,7,108816,92569,76.0,98.0
2026-02-17T16:51:28.722141,5,8,108808,92588,76.0,98.0
2026-02-17T16:51:28.722147,5,9,108807,92570,76.0,98.0
2026-02-17T16:51:28.722153,5,10,108800,92557,76.0,98.0
2026-02-17T16:51:28.722160,5,11,108748,92502,76.0,98.0
2026-02-17T16:51:28.722166,5,12,108680,92456,76.0,98.0
2026-02-17T16:51:28.812540,5,13,108643,92441,76.0,98.0
2026-02-17T16:51:29.002579,5,14,108587,92411,76.0,98.0
2026-02-17T16:51:29.126789,5,15,108665,92453,76.0,98.0
2026-02-17T16:51:29.292811,5,16,108719,92474,76.0,98.0
2026-02-17T16:51:29.423009,5,17,108723,92476,76.0,98.0
2026-02-17T16:51:29.592966,5,18,108694,92471,76.0,98.0
2026-02-17T16:51:29.720570,5,19,108641,92443,76.0,98.0
2026-02-17T16:51:29.843361,5,20,108678,92441,76.0,98.0
2026-02-17T16:51:29.967685,5,21,108710,92467,76.0,98.0
2026-02-17T16:51:30.073308,5,22,108787,92513,76.0,98.0
2026-02-17T16:51:30.263731,5,23,108794,92552,76.0,98.0
2026-02-17T16:51:30.494944,5,24,108844,92562,76.0,98.0
2026-02-17T16:51:30.732643,5,25,108890,92578,76.0,98.0
2026-02-17T16:51:30.862602,5,26,108933,92636,76.0,98.0
2026-02-17T16:51:30.987386,5,27,108913,92595,76.0,98.0
2026-02-17T16:51:31.093208,5,28,108852,92549,76.0,98.0
2026-02-17T16:51:31.219565,5,29,108829,92513,76.0,98.0
2026-02-17T16:51:31.452568,5,30,108797,92515,76.0,98.0
2026-02-17T16:51:31.572811,5,31,108818,92515,76.0,98.0
2026-02-17T16:51:31.701575,5,32,108816,92522,76.0,98.0
2026-02-17T16:51:31.872745,5,33,108734,92554,76.0,98.0
2026-02-17T16:51:31.999228,5,34,108841,92674,76.0,98.0
2026-02-17T16:51:32.184251,5,35,108878,92671,76.0,98.0
2026-02-17T16:51:32.352449,5,36,108877,92654,76.0,98.0
2026-02-17T16:51:32.542155,5,37,108836,92614,76.0,98.0
2026-02-17T16:51:32.712861,5,38,108800,92607,76.0,98.0
2026-02-17T16:51:32.839000,5,39,108781,92585,76.0,98.0
2026-02-17T16:51:32.963442,5,40,108766,92539,76.0,98.0
2026-02-17T16:51:33.133191,5,41,108804,92549,76.0,98.0
2026-02-17T16:51:33.325112,5,42,108810,92575,76.0,98.0
2026-02-17T16:51:33.432351,5,43,108827,92593,76.0,98.0
2026-02-17T16:51:33.686123,5,44,108844,92584,76.0,98.0
2026-02-17T16:51:35.963119,6,0,108868,92605,71.0,98.0
2026-02-17T16:51:35.963143,6,1,108904,92601,71.0,98.0
2026-02-17T16:51:35.963148,6,2,108892,92624,71.0,98.0
2026-02-17T16:51:35.963151,6,3,108885,92632,71.0,98.0
2026-02-17T16:51:35.963156,6,4,108864,92611,71.0,98.0
2026-02-17T16:51:35.963162,6,5,108845,92601,71.0,98.0
2026-02-17T16:51:35.963167,6,6,108859,92606,71.0,98.0
2026-02-17T16:51:35.963172,6,7,108915,92632,71.0,98.0
2026-02-17T16:51:35.963177,6,8,108874,92638,71.0,98.0
2026-02-17T16:51:35.963183,6,9,108898,92644,71.0,98.0
2026-02-17T16:51:35.963189,6,10,108920,92631,71.0,98.0
2026-02-17T16:51:35.963195,6,11,108950,92654,71.0,98.0
2026-02-17T16:51:35.963201,6,12,108961,92664,71.0,98.0
2026-02-17T16:51:35.963207,6,13,108937,92649,71.0,98.0
2026-02-17T16:51:36.088095,6,14,108922,92697,71.0,98.0
2026-02-17T16:51:36.193184,6,15,108877,92619,71.0,98.0
2026-02-17T16:51:36.384863,6,16,108850,92609,71.0,98.0
2026-02-17T16:51:36.492637,6,17,108871,92636,71.0,98.0
2026-02-17T16:51:36.617384,6,18,108873,92627,71.0,98.0
2026-02-17T16:51:36.805948,6,19,108916,92621,71.0,98.0
2026-02-17T16:51:37.041120,6,20,108897,92610,71.0,98.0
2026-02-17T16:51:37.164424,6,21,108891,92574,71.0,98.0
2026-02-17T16:51:37.273173,6,22,108851,92528,71.0,98.0
2026-02-17T16:51:37.524833,6,23,108804,92514,71.0,98.0
2026-02-17T16:51:37.692891,6,24,108767,92474,71.0,98.0
2026-02-17T16:51:37.813396,6,25,108735,92432,71.0,98.0
2026-02-17T16:51:37.943863,6,26,108645,92405,71.0,98.0
2026-02-17T16:51:38.052864,6,27,108633,92408,71.0,98.0
2026-02-17T16:51:38.240433,6,28,108613,92381,71.0,98.0
2026-02-17T16:51:38.427802,6,29,108502,92301,71.0,98.0
2026-02-17T16:51:38.533765,6,30,108514,92282,71.0,98.0
2026-02-17T16:51:38.723378,6,31,108539,92274,71.0,98.0
2026-02-17T16:51:38.891974,6,32,108539,92332,71.0,98.0
2026-02-17T16:51:39.014151,6,33,108505,92290,71.0,98.0
2026-02-17T16:51:39.206221,6,34,108520,92308,71.0,98.0
2026-02-17T16:51:39.372528,6,35,108558,92301,71.0,98.0
2026-02-17T16:51:39.500893,6,36,108591,92335,71.0,98.0
2026-02-17T16:51:39.672218,6,37,108606,92353,71.0,98.0
2026-02-17T16:51:39.861210,6,38,108587,92363,71.0,98.0
2026-02-17T16:51:39.985678,6,39,108585,92381,71.0,98.0
2026-02-17T16:51:40.152483,6,40,108655,92406,71.0,98.0
2026-02-17T16:51:40.343204,6,41,108671,92388,71.0,98.0
2026-02-17T16:51:40.467451,6,42,108619,92373,71.0,98.0
2026-02-17T16:51:40.639168,6,43,108605,92381,71.0,98.0
2026-02-17T16:51:40.887165,6,44,108651,92393,71.0,98.0
2026-02-17T16:51:42.631615,7,0,108673,92427,75.0,98.0
2026-02-17T16:51:42.631644,7,1,108752,92445,75.0,98.0
2026-02-17T16:51:42.631650,7,2,108853,92514,75.0,98.0
2026-02-17T16:51:42.631655,7,3,108938,92560,75.0,98.0
2026-02-17T16:51:42.631661,7,4,108931,92556,75.0,98.0
2026-02-17T16:51:42.631665,7,5,108926,92569,75.0,98.0
2026-02-17T16:51:42.631675,7,6,108965,92577,75.0,98.0
2026-02-17T16:51:42.631682,7,7,108943,92555,75.0,98.0
2026-02-17T16:51:42.631690,7,8,108912,92541,75.0,98.0
2026-02-17T16:51:42.631700,7,9,108908,92530,75.0,98.0
2026-02-17T16:51:42.631708,7,10,108917,92536,75.0,98.0
2026-02-17T16:51:42.673104,7,11,108908,92549,75.0,98.0
2026-02-17T16:51:42.863522,7,12,108890,92522,75.0,98.0
2026-02-17T16:51:43.048630,7,13,108849,92514,75.0,98.0
2026-02-17T16:51:43.158598,7,14,108827,92492,75.0,98.0
2026-02-17T16:51:43.344944,7,15,108829,92489,75.0,98.0
2026-02-17T16:51:43.512715,7,16,108839,92491,75.0,98.0
2026-02-17T16:51:43.641336,7,17,108853,92498,75.0,98.0
2026-02-17T16:51:43.812345,7,18,108794,92505,75.0,98.0
2026-02-17T16:51:43.999300,7,19,108781,92466,75.0,98.0
2026-02-17T16:51:44.124958,7,20,108807,92465,75.0,98.0
2026-02-17T16:51:44.292797,7,21,108800,92474,75.0,98.0
2026-02-17T16:51:44.481009,7,22,108836,92484,75.0,98.0
2026-02-17T16:51:44.605123,7,23,108788,92490,75.0,98.0
2026-02-17T16:51:44.772566,7,24,108760,92495,75.0,98.0
2026-02-17T16:51:44.965396,7,25,108780,92485,75.0,98.0
2026-02-17T16:51:45.073236,7,26,108809,92477,75.0,98.0
2026-02-17T16:51:45.263628,7,27,108869,92522,75.0,98.0
2026-02-17T16:51:45.433029,7,28,108845,92518,75.0,98.0
2026-02-17T16:51:45.558442,7,29,108870,92546,75.0,98.0
2026-02-17T16:51:45.743729,7,30,108907,92541,75.0,98.0
2026-02-17T16:51:45.913964,7,31,108989,92550,75.0,98.0
2026-02-17T16:51:46.041860,7,32,108962,92567,75.0,98.0
2026-02-17T16:51:46.228828,7,33,108904,92492,75.0,98.0
2026-02-17T16:51:46.460448,7,34,108818,92476,75.0,98.0
2026-02-17T16:51:46.693269,7,35,108770,92482,75.0,98.0
2026-02-17T16:51:46.818836,7,36,108849,92512,75.0,98.0
2026-02-17T16:51:46.944681,7,37,109026,92593,75.0,98.0
2026-02-17T16:51:47.113027,7,38,108885,92529,75.0,98.0
2026-02-17T16:51:47.302067,7,39,109006,92581,75.0,98.0
2026-02-17T16:51:47.428990,7,40,109132,92636,75.0,98.0
2026-02-17T16:51:47.541004,7,41,109168,92660,75.0,98.0
2026-02-17T16:51:49.503496,8,0,109191,92685,74.0,97.0
2026-02-17T16:51:49.503531,8,1,109145,92658,74.0,97.0
2026-02-17T16:51:49.503538,8,2,109170,92667,74.0,97.0
2026-02-17T16:51:49.503544,8,3,109218,92706,74.0,97.0
2026-02-17T16:51:49.503550,8,4,109263,92737,74.0,97.0
2026-02-17T16:51:49.503557,8,5,109287,92736,74.0,97.0
2026-02-17T16:51:49.503563,8,6,109317,92751,74.0,97.0
2026-02-17T16:51:49.503568,8,7,109344,92776,74.0,97.0
2026-02-17T16:51:49.503574,8,8,109304,92771,74.0,97.0
2026-02-17T16:51:49.503580,8,9,109335,92772,74.0,97.0
2026-02-17T16:51:49.503587,8,10,109310,92765,74.0,97.0
2026-02-17T16:51:49.581682,8,11,109363,92766,74.0,97.0
2026-02-17T16:51:49.707462,8,12,109316,92750,74.0,97.0
2026-02-17T16:51:49.879386,8,13,109320,92748,74.0,97.0
2026-02-17T16:51:50.127104,8,14,109281,92737,74.0,97.0
2026-02-17T16:51:50.361205,8,15,109264,92722,74.0,97.0
2026-02-17T16:51:50.486539,8,16,109219,92677,74.0,97.0
2026-02-17T16:51:50.592882,8,17,109161,92658,74.0,97.0
2026-02-17T16:51:50.720560,8,18,109154,92680,74.0,97.0
2026-02-17T16:51:50.844784,8,19,109106,92677,74.0,97.0
2026-02-17T16:51:51.012492,8,20,109039,92656,74.0,97.0
2026-02-17T16:51:51.140715,8,21,108970,92592,74.0,97.0
2026-02-17T16:51:51.325078,8,22,108884,92559,74.0,97.0
2026-02-17T16:51:51.493823,8,23,108790,92501,74.0,97.0
2026-02-17T16:51:51.622201,8,24,108740,92454,74.0,97.0
2026-02-17T16:51:51.809032,8,25,108786,92496,74.0,97.0
2026-02-17T16:51:51.980446,8,26,108727,92482,74.0,97.0
2026-02-17T16:51:52.106104,8,27,108683,92455,74.0,97.0
2026-02-17T16:51:52.273489,8,28,108548,92403,74.0,97.0
2026-02-17T16:51:52.526947,8,29,108551,92361,74.0,97.0
2026-02-17T16:51:52.632925,8,30,108576,92386,74.0,97.0
2026-02-17T16:51:52.761024,8,31,108681,92420,74.0,97.0
2026-02-17T16:51:52.932463,8,32,108750,92458,74.0,97.0
2026-02-17T16:51:53.053461,8,33,108734,92470,74.0,97.0
2026-02-17T16:51:53.245442,8,34,108660,92393,74.0,97.0
2026-02-17T16:51:53.413069,8,35,108722,92434,74.0,97.0
2026-02-17T16:51:53.541986,8,36,108709,92407,74.0,97.0
2026-02-17T16:51:53.713549,8,37,108672,92407,74.0,97.0
2026-02-17T16:51:53.964479,8,38,108609,92356,74.0,97.0
2026-02-17T16:51:54.132874,8,39,108610,92354,74.0,97.0
2026-02-17T16:51:54.385453,8,40,108591,92331,74.0,97.0
2026-02-17T16:51:54.448008,8,41,108641,92349,74.0,97.0
2026-02-17T16:51:55.867336,9,0,108877,92485,79.0,98.0
2026-02-17T16:51:55.867358,9,1,109107,92622,79.0,98.0
2026-02-17T16:51:55.867363,9,2,109169,92634,79.0,98.0
2026-02-17T16:51:55.867366,9,3,109158,92624,79.0,98.0
2026-02-17T16:51:55.867370,9,4,109113,92609,79.0,98.0
2026-02-17T16:51:55.867373,9,5,109030,92582,79.0,98.0
2026-02-17T16:51:55.867376,9,6,109000,92564,79.0,98.0
2026-02-17T16:51:55.867380,9,7,109113,92629,79.0,98.0
2026-02-17T16:51:55.867408,9,8,109258,92718,79.0,98.0
2026-02-17T16:51:55.944632,9,9,109309,92738,79.0,98.0
2026-02-17T16:51:56.173453,9,10,109317,92749,79.0,98.0
2026-02-17T16:51:56.302534,9,11,109348,92765,79.0,98.0
2026-02-17T16:51:56.424832,9,12,109378,92785,79.0,98.0
2026-02-17T16:51:56.593011,9,13,109410,92811,79.0,98.0
2026-02-17T16:51:56.846412,9,14,109469,92818,79.0,98.0
2026-02-17T16:51:56.952876,9,15,109499,92853,79.0,98.0
2026-02-17T16:51:57.080115,9,16,109532,92878,79.0,98.0
2026-02-17T16:51:57.204035,9,17,109570,92889,79.0,98.0
2026-02-17T16:51:57.373473,9,18,109478,92834,79.0,98.0
2026-02-17T16:51:57.570254,9,19,109510,92838,79.0,98.0
2026-02-17T16:51:57.673624,9,20,109488,92823,79.0,98.0
2026-02-17T16:51:57.927139,9,21,109471,92812,79.0,98.0
2026-02-17T16:51:58.347662,9,22,109475,92827,79.0,98.0
2026-02-17T16:51:58.453545,9,23,109456,92817,79.0,98.0
2026-02-17T16:51:58.583972,9,24,109486,92836,79.0,98.0
2026-02-17T16:51:58.813587,9,25,109515,92852,79.0,98.0
2026-02-17T16:51:58.933026,9,26,109463,92818,79.0,98.0
2026-02-17T16:51:59.061869,9,27,109421,92799,79.0,98.0
2026-02-17T16:51:59.232657,9,28,109412,92791,79.0,98.0
2026-02-17T16:51:59.423759,9,29,109409,92754,79.0,98.0
2026-02-17T16:51:59.654126,9,30,109410,92773,79.0,98.0
2026-02-17T16:51:59.781076,9,31,109383,92756,79.0,98.0
2026-02-17T16:51:59.905818,9,32,109363,92752,79.0,98.0
2026-02-17T16:52:00.073259,9,33,109364,92741,79.0,98.0
2026-02-17T16:52:00.200266,9,34,109395,92752,79.0,98.0
2026-02-17T16:52:00.325092,9,35,109443,92788,79.0,98.0
2026-02-17T16:52:00.493664,9,36,109414,92763,79.0,98.0
2026-02-17T16:52:00.621204,9,37,109386,92764,79.0,98.0
2026-02-17T16:52:02.274040,10,0,109400,92760,81.0,98.0
2026-02-17T16:52:02.274066,10,1,109428,92770,81.0,98.0
2026-02-17T16:52:02.274072,10,2,109453,92802,81.0,98.0
2026-02-17T16:52:02.274078,10,3,109459,92792,81.0,98.0
2026-02-17T16:52:02.274083,10,4,109461,92796,81.0,98.0
2026-02-17T16:52:02.274088,10,5,109464,92813,81.0,98.0
2026-02-17T16:52:02.274108,10,6,109501,92794,81.0,98.0
2026-02-17T16:52:02.274129,10,7,109516,92824,81.0,98.0
2026-02-17T16:52:02.274136,10,8,109552,92824,81.0,98.0
2026-02-17T16:52:02.274143,10,9,109532,92817,81.0,98.0
2026-02-17T16:52:02.305503,10,10,109545,92813,81.0,98.0
2026-02-17T16:52:02.473247,10,11,109567,92833,81.0,98.0
2026-02-17T16:52:02.667006,10,12,109647,92842,81.0,98.0
2026-02-17T16:52:02.773089,10,13,109671,92898,81.0,98.0
2026-02-17T16:52:03.027047,10,14,109698,92883,81.0,98.0
2026-02-17T16:52:03.132959,10,15,109729,92897,81.0,98.0
2026-02-17T16:52:03.253314,10,16,109749,92882,81.0,98.0
2026-02-17T16:52:03.445802,10,17,109777,92911,81.0,98.0
2026-02-17T16:52:03.679274,10,18,109770,92915,81.0,98.0
2026-02-17T16:52:03.803622,10,19,109751,92886,81.0,98.0
2026-02-17T16:52:03.927670,10,20,109751,92911,81.0,98.0
2026-02-17T16:52:04.213746,10,21,109768,92895,81.0,98.0
2026-02-17T16:52:04.461614,10,22,109753,92913,81.0,98.0
2026-02-17T16:52:04.646993,10,23,109728,92880,81.0,98.0
2026-02-17T16:52:05.053499,10,24,109737,92865,81.0,98.0
2026-02-17T16:52:05.244822,10,25,109713,92868,81.0,98.0
2026-02-17T16:52:05.352422,10,26,109710,92855,81.0,98.0
2026-02-17T16:52:05.543660,10,27,109702,92848,81.0,98.0
2026-02-17T16:52:05.652294,10,28,109722,92859,81.0,98.0
2026-02-17T16:52:05.967037,10,29,109706,92855,81.0,98.0
2026-02-17T16:52:06.072561,10,30,109675,92837,81.0,98.0
2026-02-17T16:52:06.266098,10,31,109702,92851,81.0,98.0
2026-02-17T16:52:06.372711,10,32,109725,92850,81.0,98.0
2026-02-17T16:52:06.502582,10,33,109722,92849,81.0,98.0
2026-02-17T16:52:06.737993,10,34,109707,92822,81.0,98.0
2026-02-17T16:52:07.032773,10,35,109735,92832,81.0,98.0
2026-02-17T16:52:09.516315,11,0,109759,92830,78.0,98.0
2026-02-17T16:52:09.516389,11,1,109700,92784,78.0,98.0
2026-02-17T16:52:09.516396,11,2,109704,92771,78.0,98.0
2026-02-17T16:52:09.516399,11,3,109689,92758,78.0,98.0
2026-02-17T16:52:09.516419,11,4,109534,92659,78.0,98.0
2026-02-17T16:52:09.516423,11,5,109514,92646,78.0,98.0
2026-02-17T16:52:10.937602,11,6,109564,92643,78.0,98.0
2026-02-17T16:52:12.253268,11,7,109599,92660,78.0,98.0
2026-02-17T16:52:12.557745,11,8,109684,92728,78.0,98.0
2026-02-17T16:52:13.823717,11,9,109669,92717,78.0,98.0
2026-02-17T16:52:14.353100,11,10,109772,92764,78.0,98.0
2026-02-17T16:52:16.716690,12,0,109832,92797,80.0,98.0
2026-02-17T16:52:16.716718,12,1,109790,92787,80.0,98.0
2026-02-17T16:52:16.763334,12,2,109735,92729,80.0,98.0
2026-02-17T16:52:17.293359,12,3,109751,92735,80.0,98.0
2026-02-17T16:52:17.786415,12,4,109778,92745,80.0,98.0
2026-02-17T16:52:19.168066,12,5,109795,92746,80.0,98.0
2026-02-17T16:52:24.333885,13,0,109874,92775,74.0,98.0
2026-02-17T16:52:24.333911,13,1,109710,92659,74.0,98.0
2026-02-17T16:52:24.333918,13,2,109733,92680,74.0,98.0
2026-02-17T16:52:24.505099,13,3,109756,92688,74.0,98.0
2026-02-17T16:52:25.098228,13,4,109856,92749,74.0,98.0
2026-02-17T16:52:25.524811,13,5,109859,92757,74.0,98.0
2026-02-17T16:52:25.587985,13,6,109912,92786,74.0,98.0
2026-02-17T16:52:25.825780,13,7,109902,92776,74.0,98.0
2026-02-17T16:52:26.246690,13,8,109951,92779,74.0,98.0
2026-02-17T16:52:26.606027,13,9,109948,92801,74.0,98.0
2026-02-17T16:52:27.560516,13,10,109996,92808,74.0,98.0
2026-02-17T16:52:27.794798,13,11,109894,92733,74.0,98.0
2026-02-17T16:52:27.921550,13,12,109844,92722,74.0,98.0
2026-02-17T16:52:28.393405,13,13,109795,92678,74.0,98.0
2026-02-17T16:52:29.001442,13,14,109786,92679,74.0,98.0
2026-02-17T16:52:29.293098,13,15,109787,92689,74.0,98.0
2026-02-17T16:52:31.340820,14,0,109676,92618,73.0,98.0
2026-02-17T16:52:31.340840,14,1,109694,92667,73.0,98.0
2026-02-17T16:52:31.340845,14,2,109804,92711,73.0,98.0
2026-02-17T16:52:31.340849,14,3,109704,92591,73.0,98.0
2026-02-17T16:52:31.340852,14,4,109496,92574,73.0,98.0
2026-02-17T16:52:31.340856,14,5,109650,92651,73.0,98.0
2026-02-17T16:52:31.340859,14,6,109506,92516,73.0,98.0
2026-02-17T16:52:31.340863,14,7,109441,92399,73.0,98.0
2026-02-17T16:52:31.933584,14,8,109365,92331,73.0,98.0
2026-02-17T16:52:32.122255,14,9,109670,92535,73.0,98.0
2026-02-17T16:52:32.421795,14,10,109770,92595,73.0,98.0
2026-02-17T16:52:33.320109,14,11,109863,92782,73.0,98.0
2026-02-17T16:52:33.383074,14,12,109746,92656,73.0,98.0
2026-02-17T16:52:33.553392,14,13,109748,92646,73.0,98.0
2026-02-17T16:52:33.743386,14,14,109734,92656,73.0,98.0
2026-02-17T16:52:33.913346,14,15,109757,92662,73.0,98.0
2026-02-17T16:52:34.039593,14,16,109565,92566,73.0,98.0
2026-02-17T16:52:34.273528,14,17,109550,92547,73.0,98.0
2026-02-17T16:52:34.464060,14,18,109578,92583,73.0,98.0
2026-02-17T16:52:34.633569,14,19,109599,92559,73.0,98.0
2026-02-17T16:52:35.124914,14,20,109604,92542,73.0,98.0
2026-02-17T16:52:36.013116,14,21,109547,92525,73.0,98.0
2026-02-17T16:52:36.201229,14,22,109555,92569,73.0,98.0
2026-02-17T16:52:39.164459,15,0,109609,92585,75.0,98.0
2026-02-17T16:52:39.164487,15,1,109622,92660,75.0,98.0
2026-02-17T16:52:39.164497,15,2,109737,92672,75.0,98.0
2026-02-17T16:52:39.164505,15,3,109806,92724,75.0,98.0
2026-02-17T16:52:39.164512,15,4,109835,92726,75.0,98.0
2026-02-17T16:52:39.164519,15,5,109937,92771,75.0,98.0
2026-02-17T16:52:39.164526,15,6,109997,92796,75.0,98.0
2026-02-17T16:52:39.164538,15,7,110048,92841,75.0,98.0
2026-02-17T16:52:39.254607,15,8,110076,92868,75.0,98.0
2026-02-17T16:52:39.493812,15,9,110094,92861,75.0,98.0
2026-02-17T16:52:39.619962,15,10,110051,92850,75.0,98.0
2026-02-17T16:52:39.853544,15,11,110037,92837,75.0,98.0
2026-02-17T16:52:39.979567,15,12,110035,92830,75.0,98.0
2026-02-17T16:52:40.105315,15,13,110016,92809,75.0,98.0
2026-02-17T16:52:40.703915,15,14,109926,92778,75.0,98.0
2026-02-17T16:52:41.547072,15,15,109834,92703,75.0,98.0
2026-02-17T16:52:42.206618,15,16,109596,92568,75.0,98.0
2026-02-17T16:52:42.673828,15,17,109506,92482,75.0,98.0
2026-02-17T16:52:43.099952,15,18,109454,92453,75.0,98.0
2026-02-17T16:52:43.461243,15,19,109516,92503,75.0,98.0
2026-02-17T16:52:43.586813,15,20,109516,92536,75.0,98.0
2026-02-17T16:52:44.120124,15,21,109545,92549,75.0,98.0
2026-02-17T16:52:46.241537,16,0,109635,92646,81.0,98.0
2026-02-17T16:52:46.241567,16,1,109638,92634,81.0,98.0
2026-02-17T16:52:46.241609,16,2,109646,92631,81.0,98.0
2026-02-17T16:52:46.241613,16,3,109761,92725,81.0,98.0
2026-02-17T16:52:46.241617,16,4,109764,92735,81.0,98.0
2026-02-17T16:52:46.521864,16,5,109819,92758,81.0,98.0
2026-02-17T16:52:46.584934,16,6,109904,92778,81.0,98.0
2026-02-17T16:52:46.709311,16,7,109947,92822,81.0,98.0
2026-02-17T16:52:46.814666,16,8,109970,92835,81.0,98.0
2026-02-17T16:52:47.067390,16,9,109964,92832,81.0,98.0
2026-02-17T16:52:47.173889,16,10,110026,92864,81.0,98.0
2026-02-17T16:52:47.300832,16,11,110055,92884,81.0,98.0
2026-02-17T16:52:47.486382,16,12,110024,92866,81.0,98.0
2026-02-17T16:52:47.593814,16,13,109951,92824,81.0,98.0
2026-02-17T16:52:47.782126,16,14,109947,92829,81.0,98.0
2026-02-17T16:52:48.013334,16,15,109973,92820,81.0,98.0
2026-02-17T16:52:48.142630,16,16,109998,92865,81.0,98.0
2026-02-17T16:52:48.266944,16,17,109949,92823,81.0,98.0
2026-02-17T16:52:48.434017,16,18,109935,92820,81.0,98.0
2026-02-17T16:52:48.624916,16,19,109932,92809,81.0,98.0
2026-02-17T16:52:48.733488,16,20,109892,92774,81.0,98.0
2026-02-17T16:52:49.046439,16,21,109907,92769,81.0,98.0
2026-02-17T16:52:49.153268,16,22,109832,92737,81.0,98.0
2026-02-17T16:52:49.285139,16,23,109828,92736,81.0,98.0
2026-02-17T16:52:49.453216,16,24,109849,92733,81.0,98.0
2026-02-17T16:52:49.880014,16,25,109912,92759,81.0,98.0
2026-02-17T16:52:50.006954,16,26,109923,92788,81.0,98.0
2026-02-17T16:52:50.305458,16,27,109960,92847,81.0,98.0
2026-02-17T16:52:50.473453,16,28,110032,92861,81.0,98.0
2026-02-17T16:52:50.603505,16,29,110057,92878,81.0,98.0
2026-02-17T16:52:50.841232,16,30,110033,92840,81.0,98.0
2026-02-17T16:52:51.012996,16,31,110098,92884,81.0,98.0
2026-02-17T16:52:51.134891,16,32,110127,92881,81.0,98.0
2026-02-17T16:52:53.756983,17,0,110166,92901,74.0,98.0
2026-02-17T16:52:53.757011,17,1,110170,92898,74.0,98.0
2026-02-17T16:52:53.757016,17,2,110146,92893,74.0,98.0
2026-02-17T16:52:53.757020,17,3,110163,92897,74.0,98.0
2026-02-17T16:52:53.757023,17,4,110191,92900,74.0,98.0
2026-02-17T16:52:53.757027,17,5,110187,92893,74.0,98.0
2026-02-17T16:52:53.757031,17,6,110140,92873,74.0,98.0
2026-02-17T16:52:53.757034,17,7,110130,92865,74.0,98.0
2026-02-17T16:52:53.757038,17,8,110146,92853,74.0,98.0
2026-02-17T16:52:53.757042,17,9,110115,92845,74.0,98.0
2026-02-17T16:52:53.757045,17,10,110104,92820,74.0,98.0
2026-02-17T16:52:53.757049,17,11,110088,92819,74.0,98.0
2026-02-17T16:52:53.757052,17,12,110096,92812,74.0,98.0
2026-02-17T16:52:53.833813,17,13,110053,92788,74.0,98.0
2026-02-17T16:52:54.021160,17,14,110044,92769,74.0,98.0
2026-02-17T16:52:54.205732,17,15,110072,92798,74.0,98.0
2026-02-17T16:52:54.374296,17,16,110078,92798,74.0,98.0
2026-02-17T16:52:54.502726,17,17,110061,92765,74.0,98.0
2026-02-17T16:52:54.673984,17,18,110060,92791,74.0,98.0
2026-02-17T16:52:54.793920,17,19,110056,92777,74.0,98.0
2026-02-17T16:52:55.213572,17,20,110043,92754,74.0,98.0
2026-02-17T16:52:55.346576,17,21,110036,92758,74.0,98.0
2026-02-17T16:52:55.453891,17,22,110046,92742,74.0,98.0
2026-02-17T16:52:55.705406,17,23,109995,92708,74.0,98.0
2026-02-17T16:52:55.874251,17,24,109942,92700,74.0,98.0
2026-02-17T16:52:56.002106,17,25,109943,92696,74.0,98.0
2026-02-17T16:52:56.127227,17,26,109935,92694,74.0,98.0
2026-02-17T16:52:56.234853,17,27,109953,92694,74.0,98.0
2026-02-17T16:52:56.360984,17,28,109934,92710,74.0,98.0
2026-02-17T16:52:56.594726,17,29,109899,92685,74.0,98.0
2026-02-17T16:52:57.088528,17,30,109912,92695,74.0,98.0
2026-02-17T16:52:57.193858,17,31,109935,92672,74.0,98.0
2026-02-17T16:52:57.319496,17,32,109895,92681,74.0,98.0
2026-02-17T16:52:57.554823,17,33,109896,92672,74.0,98.0
2026-02-17T16:52:57.682797,17,34,109861,92658,74.0,98.0
2026-02-17T16:52:57.853474,17,35,109840,92653,74.0,98.0
2026-02-17T16:52:58.041333,17,36,109867,92640,74.0,98.0
2026-02-17T16:52:58.273062,17,37,109857,92666,74.0,98.0
2026-02-17T16:52:58.462596,17,38,109789,92640,74.0,98.0
2026-02-17T16:53:00.254332,18,0,109759,92604,82.0,98.0
2026-02-17T16:53:00.254358,18,1,109824,92647,82.0,98.0
2026-02-17T16:53:00.254362,18,2,109914,92708,82.0,98.0
2026-02-17T16:53:00.254366,18,3,109982,92714,82.0,98.0
2026-02-17T16:53:00.254369,18,4,110017,92743,82.0,98.0
2026-02-17T16:53:00.254373,18,5,110017,92717,82.0,98.0
2026-02-17T16:53:00.614192,18,6,110055,92764,82.0,98.0
2026-02-17T16:53:00.854302,18,7,110057,92754,82.0,98.0
2026-02-17T16:53:02.008168,18,8,110071,92762,82.0,98.0
2026-02-17T16:53:02.181805,18,9,109912,92624,82.0,98.0
2026-02-17T16:53:02.306354,18,10,110014,92757,82.0,98.0
2026-02-17T16:53:02.603366,18,11,110098,92781,82.0,98.0
2026-02-17T16:53:02.834494,18,12,110097,92791,82.0,98.0
2026-02-17T16:53:03.027172,18,13,109945,92661,82.0,98.0
2026-02-17T16:53:03.133921,18,14,110019,92756,82.0,98.0
2026-02-17T16:53:03.327651,18,15,110095,92785,82.0,98.0
2026-02-17T16:53:03.755686,18,16,110149,92836,82.0,98.0
2026-02-17T16:53:03.931511,18,17,110227,92847,82.0,98.0
2026-02-17T16:53:04.161569,18,18,110272,92884,82.0,98.0
2026-02-17T16:53:04.393956,18,19,110230,92861,82.0,98.0
2026-02-17T16:53:05.121750,18,20,110127,92801,82.0,98.0
2026-02-17T16:53:09.367683,19,0,110081,92772,82.0,98.0
2026-02-17T16:53:09.367713,19,1,110080,92740,82.0,98.0
2026-02-17T16:53:09.367722,19,2,110065,92716,82.0,98.0
2026-02-17T16:53:09.367727,19,3,110037,92697,82.0,98.0
2026-02-17T16:53:09.367731,19,4,110039,92674,82.0,98.0
2026-02-17T16:53:09.367737,19,5,110025,92656,82.0,98.0
2026-02-17T16:53:09.367743,19,6,110006,92645,82.0,98.0
2026-02-17T16:53:09.367749,19,7,109954,92594,82.0,98.0
2026-02-17T16:53:09.367755,19,8,109933,92563,82.0,98.0
2026-02-17T16:53:09.367760,19,9,109994,92582,82.0,98.0
2026-02-17T16:53:09.367766,19,10,109848,92508,82.0,98.0
2026-02-17T16:53:09.367783,19,11,109862,92475,82.0,98.0
2026-02-17T16:53:09.367791,19,12,109861,92466,82.0,98.0
2026-02-17T16:53:09.367798,19,13,109812,92434,82.0,98.0
2026-02-17T16:53:09.367802,19,14,109765,92411,82.0,98.0
2026-02-17T16:53:09.367811,19,15,109805,92413,82.0,98.0
2026-02-17T16:53:09.680274,19,16,109864,92452,82.0,98.0
2026-02-17T16:53:09.914465,19,17,109749,92390,82.0,98.0
2026-02-17T16:53:10.033983,19,18,109745,92374,82.0,98.0
2026-02-17T16:53:10.163294,19,19,109766,92373,82.0,98.0
2026-02-17T16:53:10.288331,19,20,109797,92378,82.0,98.0
2026-02-17T16:53:10.394080,19,21,109818,92381,82.0,98.0
2026-02-17T16:53:10.584618,19,22,109786,92375,82.0,98.0
2026-02-17T16:53:10.755739,19,23,109757,92338,82.0,98.0
2026-02-17T16:53:10.942504,19,24,109816,92358,82.0,98.0
2026-02-17T16:53:11.067881,19,25,109880,92374,82.0,98.0
2026-02-17T16:53:11.240988,19,26,109914,92403,82.0,98.0
2026-02-17T16:53:11.365775,19,27,109962,92427,82.0,98.0
2026-02-17T16:53:11.534238,19,28,109926,92428,82.0,98.0
2026-02-17T16:53:11.723008,19,29,109929,92401,82.0,98.0
2026-02-17T16:53:12.084315,19,30,109937,92387,82.0,98.0
2026-02-17T16:53:12.193469,19,31,109954,92402,82.0,98.0
2026-02-17T16:53:12.493462,19,32,109936,92404,82.0,98.0
2026-02-17T16:53:12.686784,19,33,109939,92393,82.0,98.0
2026-02-17T16:53:12.860709,19,34,109978,92394,82.0,98.0
2026-02-17T16:53:12.987829,19,35,109985,92387,82.0,98.0
2026-02-17T16:53:13.153832,19,36,109939,92384,82.0,98.0
2026-02-17T16:53:13.393488,19,37,109956,92397,82.0,98.0
2026-02-17T16:53:13.580584,19,38,109973,92388,82.0,98.0
2026-02-17T16:53:13.768323,19,39,109988,92395,82.0,98.0
2026-02-17T16:53:13.941096,19,40,109971,92365,82.0,98.0
2026-02-17T16:53:14.068846,19,41,109940,92356,82.0,98.0
2026-02-17T16:53:14.367270,19,42,109954,92349,82.0,98.0
2026-02-17T16:53:16.257008,20,0,109991,92362,72.0,98.0
2026-02-17T16:53:16.257028,20,1,109930,92341,72.0,98.0
2026-02-17T16:53:16.257033,20,2,109905,92330,72.0,98.0
2026-02-17T16:53:16.257036,20,3,109915,92325,72.0,98.0
2026-02-17T16:53:16.257040,20,4,109880,92298,72.0,98.0
2026-02-17T16:53:16.257043,20,5,109883,92293,72.0,98.0
2026-02-17T16:53:16.257046,20,6,109876,92293,72.0,98.0
2026-02-17T16:53:16.882469,20,7,109807,92244,72.0,98.0
2026-02-17T16:53:17.175892,20,8,109904,92267,72.0,98.0
2026-02-17T16:53:17.305689,20,9,109860,92251,72.0,98.0
2026-02-17T16:53:17.414515,20,10,109840,92229,72.0,98.0
2026-02-17T16:53:17.606500,20,11,109863,92238,72.0,98.0
2026-02-17T16:53:17.780228,20,12,109872,92243,72.0,98.0
2026-02-17T16:53:18.014179,20,13,109887,92251,72.0,98.0
2026-02-17T16:53:18.202012,20,14,109829,92219,72.0,98.0
2026-02-17T16:53:18.326622,20,15,109841,92228,72.0,98.0
2026-02-17T16:53:18.434209,20,16,109857,92224,72.0,98.0
2026-02-17T16:53:18.622302,20,17,109871,92238,72.0,98.0
2026-02-17T16:53:18.914231,20,18,109894,92235,72.0,98.0
2026-02-17T16:53:19.106179,20,19,109817,92191,72.0,98.0
2026-02-17T16:53:19.213984,20,20,109803,92177,72.0,98.0
2026-02-17T16:53:19.342117,20,21,109827,92182,72.0,98.0
2026-02-17T16:53:19.528625,20,22,109845,92201,72.0,98.0
2026-02-17T16:53:19.888317,20,23,109785,92170,72.0,98.0
2026-02-17T16:53:19.993952,20,24,109757,92117,72.0,98.0
2026-02-17T16:53:20.293703,20,25,109774,92122,72.0,98.0
2026-02-17T16:53:21.081162,20,26,109731,92089,72.0,98.0
2026-02-17T16:53:24.474650,21,0,109612,92044,74.0,98.0
2026-02-17T16:53:24.474681,21,1,109393,91942,74.0,98.0
2026-02-17T16:53:24.474692,21,2,108831,91758,74.0,98.0
2026-02-17T16:53:24.474700,21,3,108722,91737,74.0,98.0
2026-02-17T16:53:24.474707,21,4,108517,91701,74.0,98.0
2026-02-17T16:53:24.474714,21,5,108558,91733,74.0,98.0
2026-02-17T16:53:24.474721,21,6,108545,91777,74.0,98.0
2026-02-17T16:53:24.474729,21,7,108709,91870,74.0,98.0
2026-02-17T16:53:24.474736,21,8,108857,91976,74.0,98.0
2026-02-17T16:53:24.474743,21,9,108862,92025,74.0,98.0
2026-02-17T16:53:24.614134,21,10,108930,92049,74.0,98.0
2026-02-17T16:53:24.987605,21,11,108998,92076,74.0,98.0
2026-02-17T16:53:25.161552,21,12,109114,92135,74.0,98.0
2026-02-17T16:53:25.394126,21,13,109236,92217,74.0,98.0
2026-02-17T16:53:25.634109,21,14,109318,92245,74.0,98.0
2026-02-17T16:53:25.754237,21,15,109364,92251,74.0,98.0
2026-02-17T16:53:26.354138,21,16,109305,92223,74.0,98.0
2026-02-17T16:53:26.482192,21,17,109397,92226,74.0,98.0
2026-02-17T16:53:26.609329,21,18,109415,92234,74.0,98.0
2026-02-17T16:53:27.201865,21,19,109409,92230,74.0,98.0
2026-02-17T16:53:27.373898,21,20,109501,92270,74.0,98.0
2026-02-17T16:53:27.564491,21,21,109476,92249,74.0,98.0
2026-02-17T16:53:27.674543,21,22,109467,92252,74.0,98.0
2026-02-17T16:53:28.034425,21,23,109490,92271,74.0,98.0
2026-02-17T16:53:28.287520,21,24,109579,92287,74.0,98.0
2026-02-17T16:53:28.583331,21,25,109573,92277,74.0,98.0
2026-02-17T16:53:28.754361,21,26,109626,92298,74.0,98.0
2026-02-17T16:53:28.941952,21,27,109614,92299,74.0,98.0
2026-02-17T16:53:29.067114,21,28,109625,92291,74.0,98.0
2026-02-17T16:53:29.234396,21,29,109509,92248,74.0,98.0
2026-02-17T16:53:33.586838,22,0,109383,92166,75.0,98.0
2026-02-17T16:53:33.586869,22,1,109382,92147,75.0,98.0
2026-02-17T16:53:33.586876,22,2,109372,92119,75.0,98.0
2026-02-17T16:53:33.586881,22,3,109452,92172,75.0,98.0
2026-02-17T16:53:33.586888,22,4,109355,92094,75.0,98.0
2026-02-17T16:53:33.586893,22,5,109356,92096,75.0,98.0
2026-02-17T16:53:33.586899,22,6,109405,92124,75.0,98.0
2026-02-17T16:53:33.586904,22,7,109459,92108,75.0,98.0
2026-02-17T16:53:33.586910,22,8,109363,92064,75.0,98.0
2026-02-17T16:53:33.586916,22,9,109352,92042,75.0,98.0
2026-02-17T16:53:33.586922,22,10,109411,92044,75.0,98.0
2026-02-17T16:53:33.586928,22,11,109400,92044,75.0,98.0
2026-02-17T16:53:33.586934,22,12,109286,91985,75.0,98.0
2026-02-17T16:53:33.586937,22,13,109257,91978,75.0,98.0
2026-02-17T16:53:33.586941,22,14,109251,91968,75.0,98.0
2026-02-17T16:53:33.586944,22,15,109270,91967,75.0,98.0
2026-02-17T16:53:33.586947,22,16,109231,91941,75.0,98.0
2026-02-17T16:53:33.586951,22,17,109149,91909,75.0,98.0
2026-02-17T16:53:33.586954,22,18,109086,91877,75.0,98.0
2026-02-17T16:53:33.586976,22,19,109091,91865,75.0,98.0
2026-02-17T16:53:33.586979,22,20,109046,91857,75.0,98.0
2026-02-17T16:53:33.586982,22,21,108924,91818,75.0,98.0
2026-02-17T16:53:33.586986,22,22,108863,91772,75.0,98.0
2026-02-17T16:53:33.586990,22,23,108926,91807,75.0,98.0
2026-02-17T16:53:33.586993,22,24,108934,91811,75.0,98.0
2026-02-17T16:53:33.586996,22,25,108822,91768,75.0,98.0
2026-02-17T16:53:33.679966,22,26,108801,91761,75.0,98.0
2026-02-17T16:53:33.805224,22,27,108796,91766,75.0,98.0
2026-02-17T16:53:33.913850,22,28,108806,91784,75.0,98.0
2026-02-17T16:53:34.034381,22,29,108727,91758,75.0,98.0
2026-02-17T16:53:34.226747,22,30,108751,91783,75.0,98.0
2026-02-17T16:53:34.334470,22,31,108797,91821,75.0,98.0
2026-02-17T16:53:34.585894,22,32,108887,91862,75.0,98.0
2026-02-17T16:53:34.694205,22,33,108901,91919,75.0,98.0
2026-02-17T16:53:34.883943,22,34,108946,91941,75.0,98.0
2026-02-17T16:53:35.183306,22,35,108992,91984,75.0,98.0
2026-02-17T16:53:35.481058,22,36,109055,92047,75.0,98.0
2026-02-17T16:53:35.606287,22,37,109094,92086,75.0,98.0
2026-02-17T16:53:35.784695,22,38,109136,92136,75.0,98.0
2026-02-17T16:53:36.081812,22,39,109161,92152,75.0,98.0
2026-02-17T16:53:36.254473,22,40,109197,92171,75.0,98.0
2026-02-17T16:53:36.440901,22,41,109194,92199,75.0,98.0
2026-02-17T16:53:36.629338,22,42,109282,92249,75.0,98.0
2026-02-17T16:53:36.863046,22,43,109238,92256,75.0,98.0
2026-02-17T16:53:36.988645,22,44,109283,92268,75.0,98.0
2026-02-17T16:53:37.461803,22,45,109326,92321,75.0,98.0
2026-02-17T16:53:37.694812,22,46,109373,92369,75.0,98.0
2026-02-17T16:53:37.887121,22,47,109475,92430,75.0,98.0
2026-02-17T16:53:38.180915,22,48,109421,92424,75.0,98.0
2026-02-17T16:53:38.354832,22,49,109465,92456,75.0,98.0
2026-02-17T16:53:40.651645,23,0,109536,92482,90.0,98.0
2026-02-17T16:53:40.651713,23,1,109568,92523,90.0,98.0
2026-02-17T16:53:40.651722,23,2,109629,92550,90.0,98.0
2026-02-17T16:53:40.651725,23,3,109565,92544,90.0,98.0
2026-02-17T16:53:40.651729,23,4,109660,92558,90.0,98.0
2026-02-17T16:53:40.651733,23,5,109701,92564,90.0,98.0
2026-02-17T16:53:41.060531,23,6,109703,92560,90.0,98.0
2026-02-17T16:53:41.485952,23,7,109784,92613,90.0,98.0
2026-02-17T16:53:41.655786,23,8,109945,92713,90.0,98.0
2026-02-17T16:53:41.849201,23,9,109915,92707,90.0,98.0
2026-02-17T16:53:41.894272,23,10,109949,92727,90.0,98.0
2026-02-17T16:53:42.022602,23,11,109999,92764,90.0,98.0
2026-02-17T16:53:42.194304,23,12,110083,92762,90.0,98.0
2026-02-17T16:53:42.384966,23,13,110022,92703,90.0,98.0
2026-02-17T16:53:42.493833,23,14,110039,92713,90.0,98.0
2026-02-17T16:53:42.684117,23,15,109925,92690,90.0,98.0
2026-02-17T16:53:42.854309,23,16,109917,92658,90.0,98.0
2026-02-17T16:53:42.997364,23,17,109916,92635,90.0,98.0
2026-02-17T16:53:43.169530,23,18,109906,92632,90.0,98.0
2026-02-17T16:53:43.339944,23,19,109877,92612,90.0,98.0
2026-02-17T16:53:43.466618,23,20,109746,92569,90.0,98.0
2026-02-17T16:53:43.640433,23,21,109696,92528,90.0,98.0
2026-02-17T16:53:43.765908,23,22,109652,92497,90.0,98.0
2026-02-17T16:53:43.876726,23,23,109636,92476,90.0,98.0
2026-02-17T16:53:44.174201,23,24,109610,92477,90.0,98.0
2026-02-17T16:53:44.299839,23,25,109549,92411,90.0,98.0
2026-02-17T16:53:44.427779,23,26,109494,92415,90.0,98.0
2026-02-17T16:53:44.594357,23,27,109451,92386,90.0,98.0
2026-02-17T16:53:44.726193,23,28,109426,92360,90.0,98.0
2026-02-17T16:53:44.834289,23,29,109430,92355,90.0,98.0
2026-02-17T16:53:45.024246,23,30,109358,92329,90.0,98.0
2026-02-17T16:53:45.194154,23,31,109319,92295,90.0,98.0
2026-02-17T16:53:45.384811,23,32,109219,92272,90.0,98.0
2026-02-17T16:53:45.494263,23,33,109251,92283,90.0,98.0
2026-02-17T16:53:47.372328,24,0,109295,92307,74.0,98.0
2026-02-17T16:53:47.372349,24,1,109292,92292,74.0,98.0
2026-02-17T16:53:47.372354,24,2,109293,92243,74.0,98.0
2026-02-17T16:53:47.372357,24,3,109469,92519,74.0,98.0
2026-02-17T16:53:47.773965,24,4,109528,92527,74.0,98.0
2026-02-17T16:53:47.898865,24,5,109517,92498,74.0,98.0
2026-02-17T16:53:48.139914,24,6,109536,92492,74.0,98.0
2026-02-17T16:53:48.374345,24,7,109536,92481,74.0,98.0
2026-02-17T16:53:48.733917,24,8,109503,92466,74.0,98.0
2026-02-17T16:53:48.864193,24,9,109412,92400,74.0,98.0
2026-02-17T16:53:49.161938,24,10,109374,92369,74.0,98.0
2026-02-17T16:53:49.334232,24,11,109254,92262,74.0,98.0
2026-02-17T16:53:49.587858,24,12,109211,92251,74.0,98.0
2026-02-17T16:53:49.761035,24,13,109229,92225,74.0,98.0
2026-02-17T16:53:49.886010,24,14,109193,92208,74.0,98.0
2026-02-17T16:53:50.123732,24,15,109176,92193,74.0,98.0
2026-02-17T16:53:50.294139,24,16,109154,92177,74.0,98.0
2026-02-17T16:53:50.484835,24,17,109145,92144,74.0,98.0
2026-02-17T16:53:50.784881,24,18,109101,92129,74.0,98.0
2026-02-17T16:53:50.954052,24,19,109102,92107,74.0,98.0
2026-02-17T16:53:51.320928,24,20,109140,92119,74.0,98.0
2026-02-17T16:53:51.446857,24,21,109246,92169,74.0,98.0
2026-02-17T16:53:51.734132,24,22,109328,92201,74.0,98.0
2026-02-17T16:53:52.101610,24,23,109438,92241,74.0,98.0
2026-02-17T16:53:52.334859,24,24,109491,92285,74.0,98.0
2026-02-17T16:53:54.338551,25,0,109566,92307,74.0,98.0
2026-02-17T16:53:54.338573,25,1,109614,92309,74.0,98.0
2026-02-17T16:53:54.338577,25,2,109621,92331,74.0,98.0
2026-02-17T16:53:54.338580,25,3,109587,92319,74.0,98.0
2026-02-17T16:53:54.338614,25,4,109630,92340,74.0,98.0
2026-02-17T16:53:54.338623,25,5,109625,92348,74.0,98.0
2026-02-17T16:53:54.338627,25,6,109609,92333,74.0,98.0
2026-02-17T16:53:54.621693,25,7,109584,92327,74.0,98.0
2026-02-17T16:53:54.747756,25,8,109539,92274,74.0,98.0
2026-02-17T16:53:54.920989,25,9,109515,92276,74.0,98.0
2026-02-17T16:53:55.214097,25,10,109497,92262,74.0,98.0
2026-02-17T16:53:55.406742,25,11,109516,92249,74.0,98.0
2026-02-17T16:53:55.514581,25,12,109545,92265,74.0,98.0
2026-02-17T16:53:55.641958,25,13,109553,92286,74.0,98.0
2026-02-17T16:53:55.829558,25,14,109523,92266,74.0,98.0
2026-02-17T16:53:56.065620,25,15,109491,92267,74.0,98.0
2026-02-17T16:53:56.302162,25,16,109457,92231,74.0,98.0
2026-02-17T16:53:56.474116,25,17,109434,92193,74.0,98.0
2026-02-17T16:53:56.597850,25,18,109407,92187,74.0,98.0
2026-02-17T16:53:56.729955,25,19,109327,92136,74.0,98.0
2026-02-17T16:53:56.903498,25,20,109279,92091,74.0,98.0
2026-02-17T16:53:57.013877,25,21,109243,92075,74.0,98.0
2026-02-17T16:53:57.134433,25,22,109238,92077,74.0,98.0
2026-02-17T16:53:57.628871,25,23,109249,92082,74.0,98.0
2026-02-17T16:53:57.865100,25,24,109240,92074,74.0,98.0
2026-02-17T16:53:58.094115,25,25,109221,92052,74.0,98.0
2026-02-17T16:53:58.274173,25,26,109226,92062,74.0,98.0
2026-02-17T16:53:58.400330,25,27,109203,92037,74.0,98.0
2026-02-17T16:53:58.589919,25,28,109188,92006,74.0,98.0
2026-02-17T16:53:58.761841,25,29,109204,92018,74.0,98.0
2026-02-17T16:53:58.886994,25,30,109259,92036,74.0,98.0
2026-02-17T16:53:59.234018,25,31,109300,92053,74.0,98.0
2026-02-17T16:54:01.843260,26,0,109326,92063,67.0,98.0
2026-02-17T16:54:01.843293,26,1,109335,92069,67.0,98.0
2026-02-17T16:54:01.843302,26,2,109410,92106,67.0,98.0
2026-02-17T16:54:01.843309,26,3,109721,92266,67.0,98.0
2026-02-17T16:54:01.843316,26,4,110078,92481,67.0,98.0
2026-02-17T16:54:01.843324,26,5,110297,92564,67.0,98.0
2026-02-17T16:54:01.843330,26,6,110210,92516,67.0,98.0
2026-02-17T16:54:01.843337,26,7,110076,92476,67.0,98.0
2026-02-17T16:54:01.843344,26,8,110013,92436,67.0,98.0
2026-02-17T16:54:01.843351,26,9,109924,92373,67.0,98.0
2026-02-17T16:54:02.001630,26,10,109792,92303,67.0,98.0
2026-02-17T16:54:02.236312,26,11,109689,92240,67.0,98.0
2026-02-17T16:54:02.361024,26,12,109562,92173,67.0,98.0
2026-02-17T16:54:02.486044,26,13,109491,92138,67.0,98.0
2026-02-17T16:54:02.783962,26,14,109383,92091,67.0,98.0
2026-02-17T16:54:02.894461,26,15,109155,91986,67.0,98.0
2026-02-17T16:54:03.021195,26,16,109117,91956,67.0,98.0
2026-02-17T16:54:03.194258,26,17,109111,91942,67.0,98.0
2026-02-17T16:54:03.382390,26,18,109008,91908,67.0,98.0
2026-02-17T16:54:03.508129,26,19,108898,91862,67.0,98.0
2026-02-17T16:54:03.681122,26,20,108847,91833,67.0,98.0
2026-02-17T16:54:03.913973,26,21,108814,91826,67.0,98.0
2026-02-17T16:54:04.042297,26,22,108831,91825,67.0,98.0
2026-02-17T16:54:04.168283,26,23,108835,91863,67.0,98.0
2026-02-17T16:54:04.333904,26,24,108769,91828,67.0,98.0
2026-02-17T16:54:04.465798,26,25,108727,91820,67.0,98.0
2026-02-17T16:54:04.634292,26,26,108750,91859,67.0,98.0
2026-02-17T16:54:04.874444,26,27,108852,91934,67.0,98.0
2026-02-17T16:54:04.995891,26,28,108926,91969,67.0,98.0
2026-02-17T16:54:05.124939,26,29,108969,91990,67.0,98.0
2026-02-17T16:54:05.354181,26,30,108908,91972,67.0,98.0
2026-02-17T16:54:05.483015,26,31,108939,92008,67.0,98.0
2026-02-17T16:54:05.594241,26,32,108945,91995,67.0,98.0
2026-02-17T16:54:05.849503,26,33,108954,91975,67.0,98.0
2026-02-17T16:54:05.954053,26,34,108970,92016,67.0,98.0
2026-02-17T16:54:06.194393,26,35,109006,92005,67.0,98.0
2026-02-17T16:54:06.323439,26,36,108957,92008,67.0,98.0
2026-02-17T16:54:06.494079,26,37,108951,91978,67.0,98.0
2026-02-17T16:54:06.618102,26,38,108942,91983,67.0,98.0
2026-02-17T16:54:06.734145,26,39,108966,91990,67.0,98.0
2026-02-17T16:54:08.525315,27,0,108972,91995,70.0,99.0
2026-02-17T16:54:08.525335,27,1,109037,92033,70.0,99.0
2026-02-17T16:54:08.525340,27,2,109028,92038,70.0,99.0
2026-02-17T16:54:08.525343,27,3,109002,92022,70.0,99.0
2026-02-17T16:54:08.525347,27,4,109010,92004,70.0,99.0
2026-02-17T16:54:08.525350,27,5,109023,92012,70.0,99.0
2026-02-17T16:54:08.525354,27,6,109007,91995,70.0,99.0
2026-02-17T16:54:08.525357,27,7,108999,91985,70.0,99.0
2026-02-17T16:54:08.714843,27,8,109080,92034,70.0,99.0
2026-02-17T16:54:08.965068,27,9,109693,92331,70.0,99.0
2026-02-17T16:54:09.074167,27,10,109958,92463,70.0,99.0
2026-02-17T16:54:09.385334,27,11,109998,92462,70.0,99.0
2026-02-17T16:54:09.494192,27,12,110003,92473,70.0,99.0
2026-02-17T16:54:09.745673,27,13,109953,92459,70.0,99.0
2026-02-17T16:54:09.872662,27,14,109848,92395,70.0,99.0
2026-02-17T16:54:09.980801,27,15,109770,92333,70.0,99.0
2026-02-17T16:54:10.169524,27,16,109705,92274,70.0,99.0
2026-02-17T16:54:10.274926,27,17,109637,92248,70.0,99.0
2026-02-17T16:54:10.467336,27,18,109547,92224,70.0,99.0
2026-02-17T16:54:10.575278,27,19,109451,92122,70.0,99.0
2026-02-17T16:54:10.698278,27,20,109341,92079,70.0,99.0
2026-02-17T16:54:10.875088,27,21,109288,92030,70.0,99.0
2026-02-17T16:54:11.065465,27,22,109203,91982,70.0,99.0
2026-02-17T16:54:11.189936,27,23,109116,91927,70.0,99.0
2026-02-17T16:54:11.362500,27,24,109060,91906,70.0,99.0
2026-02-17T16:54:11.488515,27,25,109033,91885,70.0,99.0
2026-02-17T16:54:11.662128,27,26,109030,91888,70.0,99.0
2026-02-17T16:54:11.850033,27,27,108961,91866,70.0,99.0
2026-02-17T16:54:11.954793,27,28,108945,91876,70.0,99.0
2026-02-17T16:54:12.148071,27,29,109001,91880,70.0,99.0
2026-02-17T16:54:12.321562,27,30,109012,91900,70.0,99.0
2026-02-17T16:54:12.446363,27,31,109123,91974,70.0,99.0
2026-02-17T16:54:12.620335,27,32,109158,91998,70.0,99.0
2026-02-17T16:54:12.798004,27,33,109110,91981,70.0,99.0
2026-02-17T16:54:12.988386,27,34,109092,91955,70.0,99.0
2026-02-17T16:54:13.096962,27,35,109087,91946,70.0,99.0
2026-02-17T16:54:13.274835,27,36,109098,91952,70.0,99.0
2026-02-17T16:54:13.405534,27,37,109123,91965,70.0,99.0
2026-02-17T16:54:18.428148,28,0,109065,91962,67.0,99.0
2026-02-17T16:54:18.428168,28,1,109064,91947,67.0,99.0
2026-02-17T16:54:18.428173,28,2,109078,91941,67.0,99.0
2026-02-17T16:54:18.428177,28,3,109103,91943,67.0,99.0
2026-02-17T16:54:18.428180,28,4,109107,91958,67.0,99.0
2026-02-17T16:54:18.428184,28,5,109072,91945,67.0,99.0
2026-02-17T16:54:18.428187,28,6,109082,91949,67.0,99.0
2026-02-17T16:54:18.428190,28,7,109124,91965,67.0,99.0
2026-02-17T16:54:18.428194,28,8,109099,91942,67.0,99.0
2026-02-17T16:54:18.428199,28,9,109087,91942,67.0,99.0
2026-02-17T16:54:18.428203,28,10,109074,91938,67.0,99.0
2026-02-17T16:54:18.428207,28,11,109150,91943,67.0,99.0
2026-02-17T16:54:18.428210,28,12,109334,92048,67.0,99.0
2026-02-17T16:54:18.428213,28,13,109478,92137,67.0,99.0
2026-02-17T16:54:18.428217,28,14,109668,92232,67.0,99.0
2026-02-17T16:54:18.428220,28,15,109737,92265,67.0,99.0
2026-02-17T16:54:18.428224,28,16,109837,92313,67.0,99.0
2026-02-17T16:54:18.428229,28,17,109907,92350,67.0,99.0
2026-02-17T16:54:18.428232,28,18,109988,92402,67.0,99.0
2026-02-17T16:54:18.428236,28,19,110099,92459,67.0,99.0
2026-02-17T16:54:18.428239,28,20,110115,92458,67.0,99.0
2026-02-17T16:54:18.428242,28,21,110136,92450,67.0,99.0
2026-02-17T16:54:18.428246,28,22,109970,92341,67.0,99.0
2026-02-17T16:54:18.428249,28,23,109842,92234,67.0,99.0
2026-02-17T16:54:18.428252,28,24,109795,92188,67.0,99.0
2026-02-17T16:54:18.506366,28,25,109685,92137,67.0,99.0
2026-02-17T16:54:18.629941,28,26,109589,92101,67.0,99.0
2026-02-17T16:54:18.734859,28,27,109541,92057,67.0,99.0
2026-02-17T16:54:18.866138,28,28,109492,92003,67.0,99.0
2026-02-17T16:54:18.974744,28,29,109442,91982,67.0,99.0
2026-02-17T16:54:19.160339,28,30,109331,91908,67.0,99.0
2026-02-17T16:54:19.348847,28,31,109229,91857,67.0,99.0
2026-02-17T16:54:19.454885,28,32,109236,91839,67.0,99.0
2026-02-17T16:54:19.644706,28,33,109206,91840,67.0,99.0
2026-02-17T16:54:19.814864,28,34,109161,91811,67.0,99.0
2026-02-17T16:54:19.943056,28,35,109093,91801,67.0,99.0
2026-02-17T16:54:20.114756,28,36,109072,91811,67.0,99.0
2026-02-17T16:54:20.302472,28,37,109068,91796,67.0,99.0
2026-02-17T16:54:20.424792,28,38,109060,91804,67.0,99.0
2026-02-17T16:54:20.594560,28,39,109059,91806,67.0,99.0
2026-02-17T16:54:20.781555,28,40,109011,91761,67.0,99.0
2026-02-17T16:54:20.969342,28,41,108979,91762,67.0,99.0
2026-02-17T16:54:21.074669,28,42,108998,91777,67.0,99.0
2026-02-17T16:54:21.264801,28,43,108990,91790,67.0,99.0
2026-02-17T16:54:21.389965,28,44,109020,91821,67.0,99.0
2026-02-17T16:54:21.562862,28,45,109018,91826,67.0,99.0
2026-02-17T16:54:21.687721,28,46,108986,91772,67.0,99.0
2026-02-17T16:54:21.984927,28,47,108960,91787,67.0,99.0
2026-02-17T16:54:22.108341,28,48,108930,91750,67.0,99.0
2026-02-17T16:54:22.214596,28,49,108973,91761,67.0,99.0
2026-02-17T16:54:22.342688,28,50,109167,91855,67.0,99.0
2026-02-17T16:54:22.528901,28,51,109281,91938,67.0,99.0
2026-02-17T16:54:22.700263,28,52,109415,91986,67.0,99.0
2026-02-17T16:54:22.824852,28,53,109517,92041,67.0,99.0
2026-02-17T16:54:22.994643,28,54,109605,92050,67.0,99.0
2026-02-17T16:54:23.121956,28,55,109606,92051,67.0,99.0
2026-02-17T16:54:23.308363,28,56,109576,92040,67.0,99.0
2026-02-17T16:54:27.210683,29,0,109560,91981,72.0,98.0
2026-02-17T16:54:27.210706,29,1,109675,92041,72.0,98.0
2026-02-17T16:54:27.210711,29,2,109747,92056,72.0,98.0
2026-02-17T16:54:27.210715,29,3,109811,92102,72.0,98.0
2026-02-17T16:54:27.210718,29,4,109802,92072,72.0,98.0
2026-02-17T16:54:27.210722,29,5,109787,92059,72.0,98.0
2026-02-17T16:54:27.210725,29,6,109815,92062,72.0,98.0
2026-02-17T16:54:27.210728,29,7,109825,92042,72.0,98.0
2026-02-17T16:54:27.210732,29,8,109886,92129,72.0,98.0
2026-02-17T16:54:27.210736,29,9,110057,92253,72.0,98.0
2026-02-17T16:54:27.210739,29,10,110183,92305,72.0,98.0
2026-02-17T16:54:27.210743,29,11,110275,92365,72.0,98.0
2026-02-17T16:54:27.210746,29,12,110337,92391,72.0,98.0
2026-02-17T16:54:27.210749,29,13,110363,92407,72.0,98.0
2026-02-17T16:54:27.210753,29,14,110372,92416,72.0,98.0
2026-02-17T16:54:27.210756,29,15,110377,92451,72.0,98.0
2026-02-17T16:54:27.210759,29,16,110390,92438,72.0,98.0
2026-02-17T16:54:27.210763,29,17,110324,92408,72.0,98.0
2026-02-17T16:54:27.210766,29,18,110252,92372,72.0,98.0
2026-02-17T16:54:27.210770,29,19,110199,92332,72.0,98.0
2026-02-17T16:54:27.210773,29,20,110170,92327,72.0,98.0
2026-02-17T16:54:27.210777,29,21,110094,92291,72.0,98.0
2026-02-17T16:54:27.210780,29,22,109985,92241,72.0,98.0
2026-02-17T16:54:27.255844,29,23,109948,92199,72.0,98.0
2026-02-17T16:54:27.443252,29,24,109919,92195,72.0,98.0
2026-02-17T16:54:27.675341,29,25,109859,92173,72.0,98.0
2026-02-17T16:54:27.795298,29,26,109724,92092,72.0,98.0
2026-02-17T16:54:27.924005,29,27,109678,92074,72.0,98.0
2026-02-17T16:54:28.095865,29,28,109652,92057,72.0,98.0
2026-02-17T16:54:28.220717,29,29,109627,92048,72.0,98.0
2026-02-17T16:54:28.408904,29,30,109551,92023,72.0,98.0
2026-02-17T16:54:28.581718,29,31,109475,91948,72.0,98.0
2026-02-17T16:54:28.706917,29,32,109435,91945,72.0,98.0
2026-02-17T16:54:28.876035,29,33,109427,91953,72.0,98.0
2026-02-17T16:54:29.066970,29,34,109452,91962,72.0,98.0
2026-02-17T16:54:29.175837,29,35,109407,91945,72.0,98.0
2026-02-17T16:54:29.361841,29,36,109348,91919,72.0,98.0
2026-02-17T16:54:29.549411,29,37,109361,91929,72.0,98.0
2026-02-17T16:54:29.655927,29,38,109383,91947,72.0,98.0
2026-02-17T16:54:29.846658,29,39,109416,91952,72.0,98.0
2026-02-17T16:54:30.015687,29,40,109414,91956,72.0,98.0
2026-02-17T16:54:30.141652,29,41,109356,91927,72.0,98.0
2026-02-17T16:54:30.328849,29,42,109382,91951,72.0,98.0
2026-02-17T16:54:30.496200,29,43,109380,91975,72.0,98.0
2026-02-17T16:54:30.623549,29,44,109510,92062,72.0,98.0
2026-02-17T16:54:30.795812,29,45,109534,92074,72.0,98.0
2026-02-17T16:54:30.982925,29,46,109478,92053,72.0,98.0
2026-02-17T16:54:31.107417,29,47,109469,92034,72.0,98.0
2026-02-17T16:54:31.275785,29,48,109474,92053,72.0,98.0
2026-02-17T16:54:31.466457,29,49,109475,92024,72.0,98.0
2026-02-17T16:54:31.575209,29,50,109532,92052,72.0,98.0
2026-02-17T16:54:31.764619,29,51,109504,92038,72.0,98.0
2026-02-17T16:54:31.934973,29,52,109488,92023,72.0,98.0
2026-02-17T16:54:32.055675,29,53,109474,92014,72.0,98.0
