timestamp,window,sample,ir_raw,red_raw,true_hr,true_spo2
2025-12-06T13:44:18.340320,0,0,106008.0,104240.0,102.0,98.0
2025-12-06T13:44:18.341713,0,1,106008.0,104240.0,102.0,98.0
2025-12-06T13:44:18.341713,0,2,106008.0,104240.0,102.0,98.0
2025-12-06T13:44:18.341713,0,3,106008.0,104240.0,102.0,98.0
2025-12-06T13:44:18.341713,0,4,105279.0,103983.0,102.0,98.0
2025-12-06T13:44:18.341713,0,5,105279.0,103983.0,102.0,98.0
2025-12-06T13:44:18.341713,0,6,105279.0,103983.0,102.0,98.0
2025-12-06T13:44:18.341713,0,7,105279.0,103983.0,102.0,98.0
2025-12-06T13:44:18.341713,0,8,105643.0,104145.0,102.0,98.0
2025-12-06T13:44:18.341713,0,9,105643.0,104145.0,102.0,98.0
2025-12-06T13:44:18.341713,0,10,105643.0,104145.0,102.0,98.0
2025-12-06T13:44:18.341713,0,11,105643.0,104145.0,102.0,98.0
2025-12-06T13:44:18.341713,0,12,105941.0,104275.0,102.0,98.0
2025-12-06T13:44:18.341713,0,13,105941.0,104275.0,102.0,98.0
2025-12-06T13:44:18.350116,0,14,105941.0,104275.0,102.0,98.0
2025-12-06T13:44:18.350116,0,15,105941.0,104275.0,102.0,98.0
2025-12-06T13:44:18.350893,0,16,105848.0,104231.0,102.0,98.0
2025-12-06T13:44:18.350893,0,17,105848.0,104231.0,102.0,98.0
2025-12-06T13:44:18.352602,0,18,105848.0,104231.0,102.0,98.0
2025-12-06T13:44:18.353158,0,19,105848.0,104231.0,102.0,98.0
2025-12-06T13:44:18.353158,0,20,105845.0,104220.0,102.0,98.0
2025-12-06T13:44:18.353158,0,21,105845.0,104220.0,102.0,98.0
2025-12-06T13:44:18.353158,0,22,105845.0,104220.0,102.0,98.0
2025-12-06T13:44:18.353158,0,23,105845.0,104220.0,102.0,98.0
2025-12-06T13:44:18.353158,0,24,105966.0,104259.0,102.0,98.0
2025-12-06T13:44:18.356125,0,25,105966.0,104259.0,102.0,98.0
2025-12-06T13:44:18.356125,0,26,105966.0,104259.0,102.0,98.0
2025-12-06T13:44:18.358146,0,27,105966.0,104259.0,102.0,98.0
2025-12-06T13:44:18.359209,0,28,106344.0,104434.0,102.0,98.0
2025-12-06T13:44:18.359918,0,29,106344.0,104434.0,102.0,98.0
2025-12-06T13:44:18.359918,0,30,106344.0,104434.0,102.0,98.0
2025-12-06T13:44:18.361320,0,31,106344.0,104434.0,102.0,98.0
2025-12-06T13:44:18.361320,0,32,105662.0,104158.0,102.0,98.0
2025-12-06T13:44:18.361320,0,33,105662.0,104158.0,102.0,98.0
2025-12-06T13:44:18.361320,0,34,105662.0,104158.0,102.0,98.0
2025-12-06T13:44:18.361320,0,35,105662.0,104158.0,102.0,98.0
2025-12-06T13:44:18.361320,0,36,105645.0,104113.0,102.0,98.0
2025-12-06T13:44:18.361320,0,37,105645.0,104113.0,102.0,98.0
2025-12-06T13:44:18.361320,0,38,105645.0,104113.0,102.0,98.0
2025-12-06T13:44:18.361320,0,39,105645.0,104113.0,102.0,98.0
2025-12-06T13:44:18.361320,0,40,105698.0,104139.0,102.0,98.0
2025-12-06T13:44:18.361320,0,41,105698.0,104139.0,102.0,98.0
2025-12-06T13:44:18.361320,0,42,105698.0,104139.0,102.0,98.0
2025-12-06T13:44:18.361320,0,43,105698.0,104139.0,102.0,98.0
2025-12-06T13:44:18.361320,0,44,105832.0,104195.0,102.0,98.0
2025-12-06T13:44:18.361320,0,45,105832.0,104195.0,102.0,98.0
2025-12-06T13:44:18.361320,0,46,105832.0,104195.0,102.0,98.0
2025-12-06T13:44:18.361320,0,47,105832.0,104195.0,102.0,98.0
2025-12-06T13:44:18.361320,0,48,105417.0,104019.0,102.0,98.0
2025-12-06T13:44:18.361320,0,49,105417.0,104019.0,102.0,98.0
2025-12-06T13:44:18.361320,0,50,105417.0,104019.0,102.0,98.0
2025-12-06T13:44:18.369574,0,51,105417.0,104019.0,102.0,98.0
2025-12-06T13:44:18.369574,0,52,105659.0,104083.0,102.0,98.0
2025-12-06T13:44:18.369574,0,53,105659.0,104083.0,102.0,98.0
2025-12-06T13:44:18.369574,0,54,105659.0,104083.0,102.0,98.0
2025-12-06T13:44:18.369574,0,55,105659.0,104083.0,102.0,98.0
2025-12-06T13:44:18.369574,0,56,105960.0,104217.0,102.0,98.0
2025-12-06T13:44:18.369574,0,57,105960.0,104217.0,102.0,98.0
2025-12-06T13:44:18.369574,0,58,105960.0,104217.0,102.0,98.0
2025-12-06T13:44:18.369574,0,59,105960.0,104217.0,102.0,98.0
2025-12-06T13:44:18.369574,0,60,105846.0,104179.0,102.0,98.0
2025-12-06T13:44:18.369574,0,61,105846.0,104179.0,102.0,98.0
2025-12-06T13:44:18.374728,0,62,105846.0,104179.0,102.0,98.0
2025-12-06T13:44:18.374728,0,63,105846.0,104179.0,102.0,98.0
2025-12-06T13:44:18.374728,0,64,105584.0,104045.0,102.0,98.0
2025-12-06T13:44:18.374728,0,65,105584.0,104045.0,102.0,98.0
2025-12-06T13:44:18.374728,0,66,105584.0,104045.0,102.0,98.0
2025-12-06T13:44:18.374728,0,67,105584.0,104045.0,102.0,98.0
2025-12-06T13:44:18.374728,0,68,105742.0,104099.0,102.0,98.0
2025-12-06T13:44:18.374728,0,69,105742.0,104099.0,102.0,98.0
2025-12-06T13:44:18.374728,0,70,105742.0,104099.0,102.0,98.0
2025-12-06T13:44:18.374728,0,71,105742.0,104099.0,102.0,98.0
2025-12-06T13:44:18.374728,0,72,105881.0,104134.0,102.0,98.0
2025-12-06T13:44:18.374728,0,73,105881.0,104134.0,102.0,98.0
2025-12-06T13:44:18.381962,0,74,105881.0,104134.0,102.0,98.0
2025-12-06T13:44:18.382242,0,75,105881.0,104134.0,102.0,98.0
2025-12-06T13:44:18.383501,0,76,105685.0,104058.0,102.0,98.0
2025-12-06T13:44:18.383501,0,77,105685.0,104058.0,102.0,98.0
2025-12-06T13:44:18.383501,0,78,105685.0,104058.0,102.0,98.0
2025-12-06T13:44:18.383501,0,79,105685.0,104058.0,102.0,98.0
2025-12-06T13:44:18.383501,0,80,105307.0,103881.0,102.0,98.0
2025-12-06T13:44:18.383501,0,81,105307.0,103881.0,102.0,98.0
2025-12-06T13:44:18.383501,0,82,105307.0,103881.0,102.0,98.0
2025-12-06T13:44:18.383501,0,83,105307.0,103881.0,102.0,98.0
2025-12-06T13:44:18.383501,0,84,105362.0,103868.0,102.0,98.0
2025-12-06T13:44:18.383501,0,85,105362.0,103868.0,102.0,98.0
2025-12-06T13:44:18.383501,0,86,105362.0,103868.0,102.0,98.0
2025-12-06T13:44:18.383501,0,87,105362.0,103868.0,102.0,98.0
2025-12-06T13:44:18.383501,0,88,105594.0,103957.0,102.0,98.0
2025-12-06T13:44:18.383501,0,89,105594.0,103957.0,102.0,98.0
2025-12-06T13:44:18.383501,0,90,105594.0,103957.0,102.0,98.0
2025-12-06T13:44:18.391526,0,91,105594.0,103957.0,102.0,98.0
2025-12-06T13:44:18.391526,0,92,105703.0,103958.0,102.0,98.0
2025-12-06T13:44:18.393726,0,93,105703.0,103958.0,102.0,98.0
2025-12-06T13:44:18.393726,0,94,105703.0,103958.0,102.0,98.0
2025-12-06T13:44:18.393726,0,95,105703.0,103958.0,102.0,98.0
2025-12-06T13:44:18.393726,0,96,105342.0,103796.0,102.0,98.0
2025-12-06T13:44:18.393726,0,97,105342.0,103796.0,102.0,98.0
2025-12-06T13:44:18.393726,0,98,105342.0,103796.0,102.0,98.0
2025-12-06T13:44:18.393726,0,99,105342.0,103796.0,102.0,98.0
2025-12-06T13:44:18.393726,0,100,105545.0,103851.0,102.0,98.0
2025-12-06T13:44:18.393726,0,101,105545.0,103851.0,102.0,98.0
2025-12-06T13:44:18.393726,0,102,105545.0,103851.0,102.0,98.0
2025-12-06T13:44:18.393726,0,103,105545.0,103851.0,102.0,98.0
2025-12-06T13:44:18.393726,0,104,106006.0,104051.0,102.0,98.0
2025-12-06T13:44:18.393726,0,105,106006.0,104051.0,102.0,98.0
2025-12-06T13:44:18.393726,0,106,106006.0,104051.0,102.0,98.0
2025-12-06T13:44:18.393726,0,107,106006.0,104051.0,102.0,98.0
2025-12-06T13:44:18.393726,0,108,106476.0,104245.0,102.0,98.0
2025-12-06T13:44:18.393726,0,109,106476.0,104245.0,102.0,98.0
2025-12-06T13:44:18.393726,0,110,106476.0,104245.0,102.0,98.0
2025-12-06T13:44:18.393726,0,111,106476.0,104245.0,102.0,98.0
2025-12-06T13:44:18.393726,0,112,106310.0,104179.0,102.0,98.0
2025-12-06T13:44:18.393726,0,113,106310.0,104179.0,102.0,98.0
2025-12-06T13:44:18.393726,0,114,106310.0,104179.0,102.0,98.0
2025-12-06T13:44:18.393726,0,115,106310.0,104179.0,102.0,98.0
2025-12-06T13:44:18.393726,0,116,106466.0,104223.0,102.0,98.0
2025-12-06T13:44:18.393726,0,117,106466.0,104223.0,102.0,98.0
2025-12-06T13:44:18.393726,0,118,106466.0,104223.0,102.0,98.0
2025-12-06T13:44:18.393726,0,119,106466.0,104223.0,102.0,98.0
2025-12-06T13:44:18.393726,0,120,106428.0,104139.0,102.0,98.0
2025-12-06T13:44:18.393726,0,121,106428.0,104139.0,102.0,98.0
2025-12-06T13:44:18.393726,0,122,106428.0,104139.0,102.0,98.0
2025-12-06T13:44:18.393726,0,123,106428.0,104139.0,102.0,98.0
2025-12-06T13:44:18.393726,0,124,106578.0,104203.0,102.0,98.0
2025-12-06T13:44:18.393726,0,125,106578.0,104203.0,102.0,98.0
2025-12-06T13:44:18.393726,0,126,106578.0,104203.0,102.0,98.0
2025-12-06T13:44:18.408263,0,127,106578.0,104203.0,102.0,98.0
2025-12-06T13:44:18.408263,0,128,106704.0,104243.0,102.0,98.0
2025-12-06T13:44:18.408263,0,129,106704.0,104243.0,102.0,98.0
2025-12-06T13:44:18.408263,0,130,106704.0,104243.0,102.0,98.0
2025-12-06T13:44:18.408263,0,131,106704.0,104243.0,102.0,98.0
2025-12-06T13:44:18.408263,0,132,106621.0,104190.0,102.0,98.0
2025-12-06T13:44:18.408263,0,133,106621.0,104190.0,102.0,98.0
2025-12-06T13:44:18.408263,0,134,106621.0,104190.0,102.0,98.0
2025-12-06T13:44:18.408263,0,135,106621.0,104190.0,102.0,98.0
2025-12-06T13:44:18.408263,0,136,106499.0,104100.0,102.0,98.0
2025-12-06T13:44:18.408263,0,137,106499.0,104100.0,102.0,98.0
2025-12-06T13:44:18.408263,0,138,106499.0,104100.0,102.0,98.0
2025-12-06T13:44:18.408263,0,139,106499.0,104100.0,102.0,98.0
2025-12-06T13:44:18.416314,0,140,106449.0,104028.0,102.0,98.0
2025-12-06T13:44:18.416314,0,141,106449.0,104028.0,102.0,98.0
2025-12-06T13:44:18.416314,0,142,106449.0,104028.0,102.0,98.0
2025-12-06T13:44:18.416314,0,143,106449.0,104028.0,102.0,98.0
2025-12-06T13:44:18.416314,0,144,106663.0,104109.0,102.0,98.0
2025-12-06T13:44:18.416314,0,145,106663.0,104109.0,102.0,98.0
2025-12-06T13:44:18.416314,0,146,106663.0,104109.0,102.0,98.0
2025-12-06T13:44:18.416314,0,147,106663.0,104109.0,102.0,98.0
2025-12-06T13:44:18.416314,0,148,106165.0,103872.0,102.0,98.0
2025-12-06T13:44:18.416314,0,149,106165.0,103872.0,102.0,98.0
2025-12-06T13:44:18.433757,0,150,106165.0,103872.0,102.0,98.0
2025-12-06T13:44:18.473273,0,151,106165.0,103872.0,102.0,98.0
2025-12-06T13:44:18.504608,0,152,106170.0,103863.0,102.0,98.0
2025-12-06T13:44:18.552375,0,153,106170.0,103863.0,102.0,98.0
2025-12-06T13:44:18.584020,0,154,106170.0,103863.0,102.0,98.0
2025-12-06T13:44:18.630684,0,155,106170.0,103863.0,102.0,98.0
2025-12-06T13:44:18.661666,0,156,106482.0,103980.0,102.0,98.0
2025-12-06T13:44:18.710165,0,157,106482.0,103980.0,102.0,98.0
2025-12-06T13:44:18.741637,0,158,106482.0,103980.0,102.0,98.0
2025-12-06T13:44:18.792163,0,159,106482.0,103980.0,102.0,98.0
2025-12-06T13:44:18.824821,0,160,106829.0,104114.0,102.0,98.0
2025-12-06T13:44:18.867217,0,161,106829.0,104114.0,102.0,98.0
2025-12-06T13:44:18.899462,0,162,106829.0,104114.0,102.0,98.0
2025-12-06T13:44:18.946268,0,163,106829.0,104114.0,102.0,98.0
2025-12-06T13:44:18.978681,0,164,106862.0,104174.0,102.0,98.0
2025-12-06T13:44:19.025176,0,165,106862.0,104174.0,102.0,98.0
2025-12-06T13:44:19.062193,0,166,106862.0,104174.0,102.0,98.0
2025-12-06T13:44:19.109074,0,167,106862.0,104174.0,102.0,98.0
2025-12-06T13:44:19.150440,0,168,106970.0,104217.0,102.0,98.0
2025-12-06T13:44:19.192229,0,169,106970.0,104217.0,102.0,98.0
2025-12-06T13:44:19.223955,0,170,106970.0,104217.0,102.0,98.0
2025-12-06T13:44:19.270677,0,171,106970.0,104217.0,102.0,98.0
2025-12-06T13:44:19.309181,0,172,106765.0,104081.0,102.0,98.0
2025-12-06T13:44:19.341991,0,173,106765.0,104081.0,102.0,98.0
2025-12-06T13:44:19.393012,0,174,106765.0,104081.0,102.0,98.0
2025-12-06T13:44:19.424528,0,175,106765.0,104081.0,102.0,98.0
2025-12-06T13:44:19.455768,0,176,106647.0,104017.0,102.0,98.0
2025-12-06T13:44:19.503507,0,177,106647.0,104017.0,102.0,98.0
2025-12-06T13:44:19.550458,0,178,106647.0,104017.0,102.0,98.0
2025-12-06T13:44:19.582024,0,179,106647.0,104017.0,102.0,98.0
2025-12-06T13:44:19.628903,0,180,106202.0,103803.0,102.0,98.0
2025-12-06T13:44:19.667797,0,181,106202.0,103803.0,102.0,98.0
2025-12-06T13:44:19.699449,0,182,106202.0,103803.0,102.0,98.0
2025-12-06T13:44:19.746298,0,183,106202.0,103803.0,102.0,98.0
2025-12-06T13:44:19.777573,0,184,105529.0,103481.0,102.0,98.0
2025-12-06T13:44:19.825740,0,185,105529.0,103481.0,102.0,98.0
2025-12-06T13:44:19.858146,0,186,105529.0,103481.0,102.0,98.0
2025-12-06T13:44:19.905865,0,187,105529.0,103481.0,102.0,98.0
2025-12-06T13:44:19.937982,0,188,105247.0,103354.0,102.0,98.0
2025-12-06T13:44:19.985810,0,189,105247.0,103354.0,102.0,98.0
2025-12-06T13:44:20.017625,0,190,105247.0,103354.0,102.0,98.0
2025-12-06T13:44:20.064444,0,191,105247.0,103354.0,102.0,98.0
2025-12-06T13:44:20.095703,0,192,104929.0,103179.0,102.0,98.0
2025-12-06T13:44:20.142247,0,193,104929.0,103179.0,102.0,98.0
2025-12-06T13:44:20.179776,0,194,104929.0,103179.0,102.0,98.0
2025-12-06T13:44:20.227068,0,195,104929.0,103179.0,102.0,98.0
2025-12-06T13:44:20.262304,0,196,104534.0,102959.0,102.0,98.0
2025-12-06T13:44:20.293563,0,197,104534.0,102959.0,102.0,98.0
2025-12-06T13:44:20.340532,0,198,104534.0,102959.0,102.0,98.0
2025-12-06T13:44:22.844083,1,0,104534.0,102959.0,91.0,99.0
2025-12-06T13:44:22.844083,1,1,102975.0,102232.0,91.0,99.0
2025-12-06T13:44:22.844083,1,2,102975.0,102232.0,91.0,99.0
2025-12-06T13:44:22.846910,1,3,102975.0,102232.0,91.0,99.0
2025-12-06T13:44:22.846910,1,4,102975.0,102232.0,91.0,99.0
2025-12-06T13:44:22.846910,1,5,101198.0,101303.0,91.0,99.0
2025-12-06T13:44:22.846910,1,6,101198.0,101303.0,91.0,99.0
2025-12-06T13:44:22.846910,1,7,101198.0,101303.0,91.0,99.0
2025-12-06T13:44:22.846910,1,8,101198.0,101303.0,91.0,99.0
2025-12-06T13:44:22.846910,1,9,101014.0,101269.0,91.0,99.0
2025-12-06T13:44:22.846910,1,10,101014.0,101269.0,91.0,99.0
2025-12-06T13:44:22.846910,1,11,101014.0,101269.0,91.0,99.0
2025-12-06T13:44:22.846910,1,12,101014.0,101269.0,91.0,99.0
2025-12-06T13:44:22.846910,1,13,100868.0,101193.0,91.0,99.0
2025-12-06T13:44:22.846910,1,14,100868.0,101193.0,91.0,99.0
2025-12-06T13:44:22.846910,1,15,100868.0,101193.0,91.0,99.0
2025-12-06T13:44:22.846910,1,16,100868.0,101193.0,91.0,99.0
2025-12-06T13:44:22.846910,1,17,100594.0,101071.0,91.0,99.0
2025-12-06T13:44:22.857447,1,18,100594.0,101071.0,91.0,99.0
2025-12-06T13:44:22.858675,1,19,100594.0,101071.0,91.0,99.0
2025-12-06T13:44:22.858675,1,20,100594.0,101071.0,91.0,99.0
2025-12-06T13:44:22.858675,1,21,100646.0,101161.0,91.0,99.0
2025-12-06T13:44:22.860530,1,22,100646.0,101161.0,91.0,99.0
2025-12-06T13:44:22.860530,1,23,100646.0,101161.0,91.0,99.0
2025-12-06T13:44:22.860530,1,24,100646.0,101161.0,91.0,99.0
2025-12-06T13:44:22.862385,1,25,100815.0,101295.0,91.0,99.0
2025-12-06T13:44:22.862385,1,26,100815.0,101295.0,91.0,99.0
2025-12-06T13:44:22.862385,1,27,100815.0,101295.0,91.0,99.0
2025-12-06T13:44:22.862385,1,28,100815.0,101295.0,91.0,99.0
2025-12-06T13:44:22.865704,1,29,100847.0,101320.0,91.0,99.0
2025-12-06T13:44:22.865860,1,30,100847.0,101320.0,91.0,99.0
2025-12-06T13:44:22.868193,1,31,100847.0,101320.0,91.0,99.0
2025-12-06T13:44:22.869410,1,32,100847.0,101320.0,91.0,99.0
2025-12-06T13:44:22.869410,1,33,100919.0,101376.0,91.0,99.0
2025-12-06T13:44:22.869410,1,34,100919.0,101376.0,91.0,99.0
2025-12-06T13:44:22.869410,1,35,100919.0,101376.0,91.0,99.0
2025-12-06T13:44:22.869410,1,36,100919.0,101376.0,91.0,99.0
2025-12-06T13:44:22.869410,1,37,100428.0,101200.0,91.0,99.0
2025-12-06T13:44:22.869410,1,38,100428.0,101200.0,91.0,99.0
2025-12-06T13:44:22.869410,1,39,100428.0,101200.0,91.0,99.0
2025-12-06T13:44:22.869410,1,40,100428.0,101200.0,91.0,99.0
2025-12-06T13:44:22.869410,1,41,100423.0,101215.0,91.0,99.0
2025-12-06T13:44:22.877421,1,42,100423.0,101215.0,91.0,99.0
2025-12-06T13:44:22.877421,1,43,100423.0,101215.0,91.0,99.0
2025-12-06T13:44:22.877421,1,44,100423.0,101215.0,91.0,99.0
2025-12-06T13:44:22.877421,1,45,100525.0,101303.0,91.0,99.0
2025-12-06T13:44:22.877421,1,46,100525.0,101303.0,91.0,99.0
2025-12-06T13:44:22.879980,1,47,100525.0,101303.0,91.0,99.0
2025-12-06T13:44:22.879980,1,48,100525.0,101303.0,91.0,99.0
2025-12-06T13:44:22.879980,1,49,100849.0,101463.0,91.0,99.0
2025-12-06T13:44:22.879980,1,50,100849.0,101463.0,91.0,99.0
2025-12-06T13:44:22.879980,1,51,100849.0,101463.0,91.0,99.0
2025-12-06T13:44:22.879980,1,52,100849.0,101463.0,91.0,99.0
2025-12-06T13:44:22.879980,1,53,101191.0,101630.0,91.0,99.0
2025-12-06T13:44:22.879980,1,54,101191.0,101630.0,91.0,99.0
2025-12-06T13:44:22.879980,1,55,101191.0,101630.0,91.0,99.0
2025-12-06T13:44:22.879980,1,56,101191.0,101630.0,91.0,99.0
2025-12-06T13:44:22.879980,1,57,100860.0,101522.0,91.0,99.0
2025-12-06T13:44:22.879980,1,58,100860.0,101522.0,91.0,99.0
2025-12-06T13:44:22.879980,1,59,100860.0,101522.0,91.0,99.0
2025-12-06T13:44:22.879980,1,60,100860.0,101522.0,91.0,99.0
2025-12-06T13:44:22.879980,1,61,100648.0,101442.0,91.0,99.0
2025-12-06T13:44:22.879980,1,62,100648.0,101442.0,91.0,99.0
2025-12-06T13:44:22.893307,1,63,100648.0,101442.0,91.0,99.0
2025-12-06T13:44:22.933149,1,64,100648.0,101442.0,91.0,99.0
2025-12-06T13:44:22.972757,1,65,100798.0,101521.0,91.0,99.0
2025-12-06T13:44:23.003955,1,66,100798.0,101521.0,91.0,99.0
2025-12-06T13:44:23.050800,1,67,100798.0,101521.0,91.0,99.0
2025-12-06T13:44:23.092062,1,68,100798.0,101521.0,91.0,99.0
2025-12-06T13:44:23.123697,1,69,100875.0,101573.0,91.0,99.0
2025-12-06T13:44:23.170505,1,70,100875.0,101573.0,91.0,99.0
2025-12-06T13:44:23.201818,1,71,100875.0,101573.0,91.0,99.0
2025-12-06T13:44:23.247239,1,72,100875.0,101573.0,91.0,99.0
2025-12-06T13:44:23.295131,1,73,101107.0,101671.0,91.0,99.0
2025-12-06T13:44:23.327479,1,74,101107.0,101671.0,91.0,99.0
2025-12-06T13:44:23.374441,1,75,101107.0,101671.0,91.0,99.0
2025-12-06T13:44:23.406004,1,76,101107.0,101671.0,91.0,99.0
2025-12-06T13:44:23.452882,1,77,100570.0,101473.0,91.0,99.0
2025-12-06T13:44:23.484127,1,78,100570.0,101473.0,91.0,99.0
2025-12-06T13:44:23.531011,1,79,100570.0,101473.0,91.0,99.0
2025-12-06T13:44:23.562294,1,80,100570.0,101473.0,91.0,99.0
2025-12-06T13:44:23.614061,1,81,100650.0,101499.0,91.0,99.0
2025-12-06T13:44:23.640329,1,82,100650.0,101499.0,91.0,99.0
2025-12-06T13:44:23.689285,1,83,100650.0,101499.0,91.0,99.0
2025-12-06T13:44:23.720602,1,84,100650.0,101499.0,91.0,99.0
2025-12-06T13:44:23.775534,1,85,100595.0,101497.0,91.0,99.0
2025-12-06T13:44:23.799406,1,86,100595.0,101497.0,91.0,99.0
2025-12-06T13:44:23.846462,1,87,100595.0,101497.0,91.0,99.0
2025-12-06T13:44:23.893174,1,88,100595.0,101497.0,91.0,99.0
2025-12-06T13:44:23.925286,1,89,101003.0,101691.0,91.0,99.0
2025-12-06T13:44:23.972196,1,90,101003.0,101691.0,91.0,99.0
2025-12-06T13:44:24.003802,1,91,101003.0,101691.0,91.0,99.0
2025-12-06T13:44:24.050340,1,92,101003.0,101691.0,91.0,99.0
2025-12-06T13:44:24.081785,1,93,101316.0,101836.0,91.0,99.0
2025-12-06T13:44:24.130385,1,94,101316.0,101836.0,91.0,99.0
2025-12-06T13:44:24.158556,1,95,101316.0,101836.0,91.0,99.0
2025-12-06T13:44:24.205822,1,96,101316.0,101836.0,91.0,99.0
2025-12-06T13:44:24.252327,1,97,101294.0,101817.0,91.0,99.0
2025-12-06T13:44:24.287690,1,98,101294.0,101817.0,91.0,99.0
2025-12-06T13:44:24.319393,1,99,101294.0,101817.0,91.0,99.0
2025-12-06T13:44:24.366266,1,100,101294.0,101817.0,91.0,99.0
2025-12-06T13:44:24.397515,1,101,101063.0,101766.0,91.0,99.0
2025-12-06T13:44:24.444395,1,102,101063.0,101766.0,91.0,99.0
2025-12-06T13:44:24.490898,1,103,101063.0,101766.0,91.0,99.0
2025-12-06T13:44:24.523887,1,104,101063.0,101766.0,91.0,99.0
2025-12-06T13:44:24.570762,1,105,101261.0,101864.0,91.0,99.0
2025-12-06T13:44:24.602394,1,106,101261.0,101864.0,91.0,99.0
2025-12-06T13:44:24.651293,1,107,101261.0,101864.0,91.0,99.0
2025-12-06T13:44:24.690014,1,108,101261.0,101864.0,91.0,99.0
2025-12-06T13:44:24.721284,1,109,101447.0,101965.0,91.0,99.0
2025-12-06T13:44:24.768154,1,110,101447.0,101965.0,91.0,99.0
2025-12-06T13:44:24.798527,1,111,101447.0,101965.0,91.0,99.0
2025-12-06T13:44:24.835695,1,112,101447.0,101965.0,91.0,99.0
2025-12-06T13:44:24.877582,1,113,101585.0,102027.0,91.0,99.0
2025-12-06T13:44:27.751040,2,0,101585.0,102027.0,77.0,99.0
2025-12-06T13:44:27.751040,2,1,101585.0,102027.0,77.0,99.0
2025-12-06T13:44:27.751040,2,2,101585.0,102027.0,77.0,99.0
2025-12-06T13:44:27.751040,2,3,101646.0,102045.0,77.0,99.0
2025-12-06T13:44:27.751040,2,4,101646.0,102045.0,77.0,99.0
2025-12-06T13:44:27.751040,2,5,101646.0,102045.0,77.0,99.0
2025-12-06T13:44:27.751040,2,6,101646.0,102045.0,77.0,99.0
2025-12-06T13:44:27.751040,2,7,101339.0,101925.0,77.0,99.0
2025-12-06T13:44:27.751040,2,8,101339.0,101925.0,77.0,99.0
2025-12-06T13:44:27.766869,2,9,101339.0,101925.0,77.0,99.0
2025-12-06T13:44:27.766869,2,10,101339.0,101925.0,77.0,99.0
2025-12-06T13:44:27.768498,2,11,101466.0,102024.0,77.0,99.0
2025-12-06T13:44:27.768498,2,12,101466.0,102024.0,77.0,99.0
2025-12-06T13:44:27.768498,2,13,101466.0,102024.0,77.0,99.0
2025-12-06T13:44:27.768498,2,14,101466.0,102024.0,77.0,99.0
2025-12-06T13:44:27.768498,2,15,101590.0,102098.0,77.0,99.0
2025-12-06T13:44:27.768498,2,16,101590.0,102098.0,77.0,99.0
2025-12-06T13:44:27.773362,2,17,101590.0,102098.0,77.0,99.0
2025-12-06T13:44:27.773362,2,18,101590.0,102098.0,77.0,99.0
2025-12-06T13:44:27.773362,2,19,101903.0,102217.0,77.0,99.0
2025-12-06T13:44:27.775508,2,20,101903.0,102217.0,77.0,99.0
2025-12-06T13:44:27.775815,2,21,101903.0,102217.0,77.0,99.0
2025-12-06T13:44:27.775815,2,22,101903.0,102217.0,77.0,99.0
2025-12-06T13:44:27.775815,2,23,101897.0,102203.0,77.0,99.0
2025-12-06T13:44:27.775815,2,24,101897.0,102203.0,77.0,99.0
2025-12-06T13:44:27.775815,2,25,101897.0,102203.0,77.0,99.0
2025-12-06T13:44:27.775815,2,26,101897.0,102203.0,77.0,99.0
2025-12-06T13:44:27.775815,2,27,101710.0,102142.0,77.0,99.0
2025-12-06T13:44:27.775815,2,28,101710.0,102142.0,77.0,99.0
2025-12-06T13:44:27.775815,2,29,101710.0,102142.0,77.0,99.0
2025-12-06T13:44:27.775815,2,30,101710.0,102142.0,77.0,99.0
2025-12-06T13:44:27.775815,2,31,101634.0,102099.0,77.0,99.0
2025-12-06T13:44:27.775815,2,32,101634.0,102099.0,77.0,99.0
2025-12-06T13:44:27.775815,2,33,101634.0,102099.0,77.0,99.0
2025-12-06T13:44:27.775815,2,34,101634.0,102099.0,77.0,99.0
2025-12-06T13:44:27.775815,2,35,101583.0,102081.0,77.0,99.0
2025-12-06T13:44:27.775815,2,36,101583.0,102081.0,77.0,99.0
2025-12-06T13:44:27.775815,2,37,101583.0,102081.0,77.0,99.0
2025-12-06T13:44:27.775815,2,38,101583.0,102081.0,77.0,99.0
2025-12-06T13:44:27.775815,2,39,101802.0,102169.0,77.0,99.0
2025-12-06T13:44:27.783897,2,40,101802.0,102169.0,77.0,99.0
2025-12-06T13:44:27.783897,2,41,101802.0,102169.0,77.0,99.0
2025-12-06T13:44:27.783897,2,42,101802.0,102169.0,77.0,99.0
2025-12-06T13:44:27.783897,2,43,101907.0,102223.0,77.0,99.0
2025-12-06T13:44:27.783897,2,44,101907.0,102223.0,77.0,99.0
2025-12-06T13:44:27.783897,2,45,101907.0,102223.0,77.0,99.0
2025-12-06T13:44:27.783897,2,46,101907.0,102223.0,77.0,99.0
2025-12-06T13:44:27.783897,2,47,101642.0,102094.0,77.0,99.0
2025-12-06T13:44:27.783897,2,48,101642.0,102094.0,77.0,99.0
2025-12-06T13:44:27.783897,2,49,101642.0,102094.0,77.0,99.0
2025-12-06T13:44:27.783897,2,50,101642.0,102094.0,77.0,99.0
2025-12-06T13:44:27.783897,2,51,101557.0,102068.0,77.0,99.0
2025-12-06T13:44:27.789856,2,52,101557.0,102068.0,77.0,99.0
2025-12-06T13:44:27.789856,2,53,101557.0,102068.0,77.0,99.0
2025-12-06T13:44:27.791321,2,54,101557.0,102068.0,77.0,99.0
2025-12-06T13:44:27.792216,2,55,101700.0,102118.0,77.0,99.0
2025-12-06T13:44:27.792216,2,56,101700.0,102118.0,77.0,99.0
2025-12-06T13:44:27.792216,2,57,101700.0,102118.0,77.0,99.0
2025-12-06T13:44:27.792216,2,58,101700.0,102118.0,77.0,99.0
2025-12-06T13:44:27.792216,2,59,102016.0,102261.0,77.0,99.0
2025-12-06T13:44:27.792216,2,60,102016.0,102261.0,77.0,99.0
2025-12-06T13:44:27.795359,2,61,102016.0,102261.0,77.0,99.0
2025-12-06T13:44:27.795616,2,62,102016.0,102261.0,77.0,99.0
2025-12-06T13:44:27.796945,2,63,102225.0,102335.0,77.0,99.0
2025-12-06T13:44:27.797776,2,64,102225.0,102335.0,77.0,99.0
2025-12-06T13:44:27.797776,2,65,102225.0,102335.0,77.0,99.0
2025-12-06T13:44:27.799174,2,66,102225.0,102335.0,77.0,99.0
2025-12-06T13:44:27.799174,2,67,101761.0,102143.0,77.0,99.0
2025-12-06T13:44:27.799174,2,68,101761.0,102143.0,77.0,99.0
2025-12-06T13:44:27.799174,2,69,101761.0,102143.0,77.0,99.0
2025-12-06T13:44:27.799174,2,70,101761.0,102143.0,77.0,99.0
2025-12-06T13:44:27.799174,2,71,101724.0,102108.0,77.0,99.0
2025-12-06T13:44:27.799174,2,72,101724.0,102108.0,77.0,99.0
2025-12-06T13:44:27.825220,2,73,101724.0,102108.0,77.0,99.0
2025-12-06T13:44:27.873162,2,74,101724.0,102108.0,77.0,99.0
2025-12-06T13:44:27.914811,2,75,101631.0,102056.0,77.0,99.0
2025-12-06T13:44:27.947460,2,76,101631.0,102056.0,77.0,99.0
2025-12-06T13:44:27.994337,2,77,101631.0,102056.0,77.0,99.0
2025-12-06T13:44:28.025592,2,78,101631.0,102056.0,77.0,99.0
2025-12-06T13:44:28.072463,2,79,101719.0,102101.0,77.0,99.0
2025-12-06T13:44:28.105087,2,80,101719.0,102101.0,77.0,99.0
2025-12-06T13:44:28.155266,2,81,101719.0,102101.0,77.0,99.0
2025-12-06T13:44:28.190535,2,82,101719.0,102101.0,77.0,99.0
2025-12-06T13:44:28.223022,2,83,101784.0,102112.0,77.0,99.0
2025-12-06T13:44:28.271539,2,84,101784.0,102112.0,77.0,99.0
2025-12-06T13:44:28.306294,2,85,101784.0,102112.0,77.0,99.0
2025-12-06T13:44:28.355814,2,86,101784.0,102112.0,77.0,99.0
2025-12-06T13:44:28.395818,2,87,101319.0,101916.0,77.0,99.0
2025-12-06T13:44:28.427436,2,88,101319.0,101916.0,77.0,99.0
2025-12-06T13:44:28.473969,2,89,101319.0,101916.0,77.0,99.0
2025-12-06T13:44:28.505244,2,90,101319.0,101916.0,77.0,99.0
2025-12-06T13:44:28.552449,2,91,101196.0,101858.0,77.0,99.0
2025-12-06T13:44:28.583677,2,92,101196.0,101858.0,77.0,99.0
2025-12-06T13:44:28.623004,2,93,101196.0,101858.0,77.0,99.0
2025-12-06T13:44:28.671834,2,94,101196.0,101858.0,77.0,99.0
2025-12-06T13:44:28.713901,2,95,101360.0,101939.0,77.0,99.0
2025-12-06T13:44:28.755205,2,96,101360.0,101939.0,77.0,99.0
2025-12-06T13:44:28.786816,2,97,101360.0,101939.0,77.0,99.0
2025-12-06T13:44:28.820802,2,98,101360.0,101939.0,77.0,99.0
2025-12-06T13:44:28.870634,2,99,101422.0,101937.0,77.0,99.0
2025-12-06T13:44:28.909092,2,100,101422.0,101937.0,77.0,99.0
2025-12-06T13:44:28.939964,2,101,101422.0,101937.0,77.0,99.0
2025-12-06T13:44:28.987182,2,102,101422.0,101937.0,77.0,99.0
2025-12-06T13:44:29.033714,2,103,101011.0,101767.0,77.0,99.0
2025-12-06T13:44:29.065340,2,104,101011.0,101767.0,77.0,99.0
2025-12-06T13:44:29.112218,2,105,101011.0,101767.0,77.0,99.0
2025-12-06T13:44:29.143460,2,106,101011.0,101767.0,77.0,99.0
2025-12-06T13:44:29.180828,2,107,101168.0,101833.0,77.0,99.0
2025-12-06T13:44:29.223240,2,108,101168.0,101833.0,77.0,99.0
2025-12-06T13:44:29.270560,2,109,101168.0,101833.0,77.0,99.0
2025-12-06T13:44:29.305183,2,110,101168.0,101833.0,77.0,99.0
2025-12-06T13:44:29.352132,2,111,101290.0,101876.0,77.0,99.0
2025-12-06T13:44:29.386509,2,112,101290.0,101876.0,77.0,99.0
2025-12-06T13:44:29.418050,2,113,101290.0,101876.0,77.0,99.0
2025-12-06T13:44:29.466235,2,114,101290.0,101876.0,77.0,99.0
2025-12-06T13:44:29.512745,2,115,101764.0,102082.0,77.0,99.0
2025-12-06T13:44:29.544374,2,116,101764.0,102082.0,77.0,99.0
2025-12-06T13:44:29.576122,2,117,101764.0,102082.0,77.0,99.0
2025-12-06T13:44:29.623056,2,118,101764.0,102082.0,77.0,99.0
2025-12-06T13:44:29.671626,2,119,101134.0,101822.0,77.0,99.0
2025-12-06T13:44:29.703251,2,120,101134.0,101822.0,77.0,99.0
2025-12-06T13:44:29.740029,2,121,101134.0,101822.0,77.0,99.0
2025-12-06T13:44:29.787220,2,122,101134.0,101822.0,77.0,99.0
2025-12-06T13:44:31.462483,3,0,101129.0,101777.0,74.0,99.0
2025-12-06T13:44:31.462483,3,1,101129.0,101777.0,74.0,99.0
2025-12-06T13:44:31.462483,3,2,101129.0,101777.0,74.0,99.0
2025-12-06T13:44:31.464917,3,3,101129.0,101777.0,74.0,99.0
2025-12-06T13:44:31.464917,3,4,101516.0,101938.0,74.0,99.0
2025-12-06T13:44:31.464917,3,5,101516.0,101938.0,74.0,99.0
2025-12-06T13:44:31.464917,3,6,101516.0,101938.0,74.0,99.0
2025-12-06T13:44:31.464917,3,7,101516.0,101938.0,74.0,99.0
2025-12-06T13:44:31.464917,3,8,101789.0,102052.0,74.0,99.0
2025-12-06T13:44:31.464917,3,9,101789.0,102052.0,74.0,99.0
2025-12-06T13:44:31.464917,3,10,101789.0,102052.0,74.0,99.0
2025-12-06T13:44:31.464917,3,11,101789.0,102052.0,74.0,99.0
2025-12-06T13:44:31.464917,3,12,101663.0,101998.0,74.0,99.0
2025-12-06T13:44:31.464917,3,13,101663.0,101998.0,74.0,99.0
2025-12-06T13:44:31.464917,3,14,101663.0,101998.0,74.0,99.0
2025-12-06T13:44:31.464917,3,15,101663.0,101998.0,74.0,99.0
2025-12-06T13:44:31.464917,3,16,101728.0,102005.0,74.0,99.0
2025-12-06T13:44:31.472010,3,17,101728.0,102005.0,74.0,99.0
2025-12-06T13:44:31.473112,3,18,101728.0,102005.0,74.0,99.0
2025-12-06T13:44:31.473112,3,19,101728.0,102005.0,74.0,99.0
2025-12-06T13:44:31.473112,3,20,101726.0,102000.0,74.0,99.0
2025-12-06T13:44:31.474989,3,21,101726.0,102000.0,74.0,99.0
2025-12-06T13:44:31.476210,3,22,101726.0,102000.0,74.0,99.0
2025-12-06T13:44:31.476210,3,23,101726.0,102000.0,74.0,99.0
2025-12-06T13:44:31.476210,3,24,101991.0,102101.0,74.0,99.0
2025-12-06T13:44:31.476210,3,25,101991.0,102101.0,74.0,99.0
2025-12-06T13:44:31.479187,3,26,101991.0,102101.0,74.0,99.0
2025-12-06T13:44:31.479402,3,27,101991.0,102101.0,74.0,99.0
2025-12-06T13:44:31.480676,3,28,102378.0,102278.0,74.0,99.0
2025-12-06T13:44:31.480832,3,29,102378.0,102278.0,74.0,99.0
2025-12-06T13:44:31.480832,3,30,102378.0,102278.0,74.0,99.0
2025-12-06T13:44:31.480832,3,31,102378.0,102278.0,74.0,99.0
2025-12-06T13:44:31.480832,3,32,102066.0,102168.0,74.0,99.0
2025-12-06T13:44:31.480832,3,33,102066.0,102168.0,74.0,99.0
2025-12-06T13:44:31.486026,3,34,102066.0,102168.0,74.0,99.0
2025-12-06T13:44:31.486026,3,35,102066.0,102168.0,74.0,99.0
2025-12-06T13:44:31.486026,3,36,101930.0,102087.0,74.0,99.0
2025-12-06T13:44:31.486026,3,37,101930.0,102087.0,74.0,99.0
2025-12-06T13:44:31.486026,3,38,101930.0,102087.0,74.0,99.0
2025-12-06T13:44:31.488727,3,39,101930.0,102087.0,74.0,99.0
2025-12-06T13:44:31.488727,3,40,102097.0,102164.0,74.0,99.0
2025-12-06T13:44:31.491112,3,41,102097.0,102164.0,74.0,99.0
2025-12-06T13:44:31.500737,3,42,102097.0,102164.0,74.0,99.0
2025-12-06T13:44:31.538951,3,43,102097.0,102164.0,74.0,99.0
2025-12-06T13:44:31.573987,3,44,102268.0,102231.0,74.0,99.0
2025-12-06T13:44:31.622502,3,45,102268.0,102231.0,74.0,99.0
2025-12-06T13:44:31.656164,3,46,102268.0,102231.0,74.0,99.0
2025-12-06T13:44:31.703295,3,47,102268.0,102231.0,74.0,99.0
2025-12-06T13:44:31.734922,3,48,102344.0,102258.0,74.0,99.0
2025-12-06T13:44:31.781816,3,49,102344.0,102258.0,74.0,99.0
2025-12-06T13:44:31.815683,3,50,102344.0,102258.0,74.0,99.0
2025-12-06T13:44:31.851275,3,51,102344.0,102258.0,74.0,99.0
2025-12-06T13:44:31.898725,3,52,101937.0,102078.0,74.0,99.0
2025-12-06T13:44:31.941527,3,53,101937.0,102078.0,74.0,99.0
2025-12-06T13:44:31.979299,3,54,101937.0,102078.0,74.0,99.0
2025-12-06T13:44:32.012003,3,55,101937.0,102078.0,74.0,99.0
2025-12-06T13:44:32.060035,3,56,101981.0,102108.0,74.0,99.0
2025-12-06T13:44:32.094262,3,57,101981.0,102108.0,74.0,99.0
2025-12-06T13:44:32.139413,3,58,101981.0,102108.0,74.0,99.0
2025-12-06T13:44:32.170827,3,59,101981.0,102108.0,74.0,99.0
2025-12-06T13:44:32.218144,3,60,102095.0,102150.0,74.0,99.0
2025-12-06T13:44:32.255048,3,61,102095.0,102150.0,74.0,99.0
2025-12-06T13:44:32.286941,3,62,102095.0,102150.0,74.0,99.0
2025-12-06T13:44:32.335399,3,63,102095.0,102150.0,74.0,99.0
2025-12-06T13:44:32.367521,3,64,102229.0,102194.0,74.0,99.0
2025-12-06T13:44:32.414824,3,65,102229.0,102194.0,74.0,99.0
2025-12-06T13:44:32.459647,3,66,102229.0,102194.0,74.0,99.0
2025-12-06T13:44:32.497871,3,67,102229.0,102194.0,74.0,99.0
2025-12-06T13:44:32.530646,3,68,102504.0,102312.0,74.0,99.0
2025-12-06T13:44:32.577544,3,69,102504.0,102312.0,74.0,99.0
2025-12-06T13:44:32.610217,3,70,102504.0,102312.0,74.0,99.0
2025-12-06T13:44:32.656135,3,71,102504.0,102312.0,74.0,99.0
2025-12-06T13:44:32.688163,3,72,101752.0,102028.0,74.0,99.0
2025-12-06T13:44:32.735958,3,73,101752.0,102028.0,74.0,99.0
2025-12-06T13:44:32.767724,3,74,101752.0,102028.0,74.0,99.0
2025-12-06T13:44:32.814632,3,75,101752.0,102028.0,74.0,99.0
2025-12-06T13:44:32.852002,3,76,101098.0,101735.0,74.0,99.0
2025-12-06T13:44:32.897971,3,77,101098.0,101735.0,74.0,99.0
2025-12-06T13:44:32.923159,3,78,101098.0,101735.0,74.0,99.0
2025-12-06T13:44:32.970236,3,79,101098.0,101735.0,74.0,99.0
2025-12-06T13:44:33.017129,3,80,101037.0,101719.0,74.0,99.0
2025-12-06T13:44:33.050896,3,81,101037.0,101719.0,74.0,99.0
2025-12-06T13:44:33.097382,3,82,101037.0,101719.0,74.0,99.0
2025-12-06T13:44:33.129012,3,83,101037.0,101719.0,74.0,99.0
2025-12-06T13:44:33.177059,3,84,101282.0,101829.0,74.0,99.0
2025-12-06T13:44:33.206333,3,85,101282.0,101829.0,74.0,99.0
2025-12-06T13:44:33.253645,3,86,101282.0,101829.0,74.0,99.0
2025-12-06T13:44:33.285351,3,87,101282.0,101829.0,74.0,99.0
2025-12-06T13:44:33.328510,3,88,101368.0,101872.0,74.0,99.0
2025-12-06T13:44:33.375879,3,89,101368.0,101872.0,74.0,99.0
2025-12-06T13:44:33.405429,3,90,101368.0,101872.0,74.0,99.0
2025-12-06T13:44:33.452448,3,91,101368.0,101872.0,74.0,99.0
2025-12-06T13:44:33.485563,3,92,101198.0,101812.0,74.0,99.0
2025-12-06T13:44:35.560838,4,0,101198.0,101812.0,80.0,98.0
2025-12-06T13:44:35.560838,4,1,101198.0,101812.0,80.0,98.0
2025-12-06T13:44:35.560838,4,2,101198.0,101812.0,80.0,98.0
2025-12-06T13:44:35.563612,4,3,100909.0,101692.0,80.0,98.0
2025-12-06T13:44:35.563612,4,4,100909.0,101692.0,80.0,98.0
2025-12-06T13:44:35.563612,4,5,100909.0,101692.0,80.0,98.0
2025-12-06T13:44:35.563612,4,6,100909.0,101692.0,80.0,98.0
2025-12-06T13:44:35.563612,4,7,100997.0,101757.0,80.0,98.0
2025-12-06T13:44:35.563612,4,8,100997.0,101757.0,80.0,98.0
2025-12-06T13:44:35.563612,4,9,100997.0,101757.0,80.0,98.0
2025-12-06T13:44:35.563612,4,10,100997.0,101757.0,80.0,98.0
2025-12-06T13:44:35.563612,4,11,101192.0,101852.0,80.0,98.0
2025-12-06T13:44:35.563612,4,12,101192.0,101852.0,80.0,98.0
2025-12-06T13:44:35.563612,4,13,101192.0,101852.0,80.0,98.0
2025-12-06T13:44:35.563612,4,14,101192.0,101852.0,80.0,98.0
2025-12-06T13:44:35.563612,4,15,101400.0,101942.0,80.0,98.0
2025-12-06T13:44:35.563612,4,16,101400.0,101942.0,80.0,98.0
2025-12-06T13:44:35.563612,4,17,101400.0,101942.0,80.0,98.0
2025-12-06T13:44:35.563612,4,18,101400.0,101942.0,80.0,98.0
2025-12-06T13:44:35.563612,4,19,101710.0,102084.0,80.0,98.0
2025-12-06T13:44:35.571155,4,20,101710.0,102084.0,80.0,98.0
2025-12-06T13:44:35.572266,4,21,101710.0,102084.0,80.0,98.0
2025-12-06T13:44:35.572266,4,22,101710.0,102084.0,80.0,98.0
2025-12-06T13:44:35.572266,4,23,101335.0,101940.0,80.0,98.0
2025-12-06T13:44:35.572266,4,24,101335.0,101940.0,80.0,98.0
2025-12-06T13:44:35.574209,4,25,101335.0,101940.0,80.0,98.0
2025-12-06T13:44:35.574209,4,26,101335.0,101940.0,80.0,98.0
2025-12-06T13:44:35.575657,4,27,101511.0,102025.0,80.0,98.0
2025-12-06T13:44:35.575657,4,28,101511.0,102025.0,80.0,98.0
2025-12-06T13:44:35.575657,4,29,101511.0,102025.0,80.0,98.0
2025-12-06T13:44:35.575657,4,30,101511.0,102025.0,80.0,98.0
2025-12-06T13:44:35.575657,4,31,101651.0,102102.0,80.0,98.0
2025-12-06T13:44:35.575657,4,32,101651.0,102102.0,80.0,98.0
2025-12-06T13:44:35.578874,4,33,101651.0,102102.0,80.0,98.0
2025-12-06T13:44:35.578874,4,34,101651.0,102102.0,80.0,98.0
2025-12-06T13:44:35.580716,4,35,101846.0,102193.0,80.0,98.0
2025-12-06T13:44:35.581427,4,36,101846.0,102193.0,80.0,98.0
2025-12-06T13:44:35.581951,4,37,101846.0,102193.0,80.0,98.0
2025-12-06T13:44:35.581951,4,38,101846.0,102193.0,80.0,98.0
2025-12-06T13:44:35.581951,4,39,102283.0,102400.0,80.0,98.0
2025-12-06T13:44:35.581951,4,40,102283.0,102400.0,80.0,98.0
2025-12-06T13:44:35.581951,4,41,102283.0,102400.0,80.0,98.0
2025-12-06T13:44:35.581951,4,42,102283.0,102400.0,80.0,98.0
2025-12-06T13:44:35.581951,4,43,102559.0,102522.0,80.0,98.0
2025-12-06T13:44:35.581951,4,44,102559.0,102522.0,80.0,98.0
2025-12-06T13:44:35.581951,4,45,102559.0,102522.0,80.0,98.0
2025-12-06T13:44:35.581951,4,46,102559.0,102522.0,80.0,98.0
2025-12-06T13:44:35.581951,4,47,102534.0,102540.0,80.0,98.0
2025-12-06T13:44:35.581951,4,48,102534.0,102540.0,80.0,98.0
2025-12-06T13:44:35.581951,4,49,102534.0,102540.0,80.0,98.0
2025-12-06T13:44:35.589953,4,50,102534.0,102540.0,80.0,98.0
2025-12-06T13:44:35.589953,4,51,103328.0,102931.0,80.0,98.0
2025-12-06T13:44:35.607856,4,52,103328.0,102931.0,80.0,98.0
2025-12-06T13:44:35.646734,4,53,103328.0,102931.0,80.0,98.0
2025-12-06T13:44:35.686875,4,54,103328.0,102931.0,80.0,98.0
2025-12-06T13:44:35.718172,4,55,103576.0,103030.0,80.0,98.0
2025-12-06T13:44:35.765044,4,56,103576.0,103030.0,80.0,98.0
2025-12-06T13:44:35.796471,4,57,103576.0,103030.0,80.0,98.0
2025-12-06T13:44:35.843840,4,58,103576.0,103030.0,80.0,98.0
2025-12-06T13:44:35.876132,4,59,104047.0,103219.0,80.0,98.0
2025-12-06T13:44:35.923423,4,60,104047.0,103219.0,80.0,98.0
2025-12-06T13:44:35.954627,4,61,104047.0,103219.0,80.0,98.0
2025-12-06T13:44:36.001588,4,62,104047.0,103219.0,80.0,98.0
2025-12-06T13:44:36.032829,4,63,104102.0,103249.0,80.0,98.0
2025-12-06T13:44:36.080822,4,64,104102.0,103249.0,80.0,98.0
2025-12-06T13:44:36.112622,4,65,104102.0,103249.0,80.0,98.0
2025-12-06T13:44:36.165339,4,66,104102.0,103249.0,80.0,98.0
2025-12-06T13:44:36.203607,4,67,103426.0,102976.0,80.0,98.0
2025-12-06T13:44:36.234853,4,68,103426.0,102976.0,80.0,98.0
2025-12-06T13:44:36.281734,4,69,103426.0,102976.0,80.0,98.0
2025-12-06T13:44:36.313319,4,70,103426.0,102976.0,80.0,98.0
2025-12-06T13:44:36.360793,4,71,103251.0,102899.0,80.0,98.0
2025-12-06T13:44:36.392073,4,72,103251.0,102899.0,80.0,98.0
2025-12-06T13:44:36.439731,4,73,103251.0,102899.0,80.0,98.0
2025-12-06T13:44:36.471272,4,74,103251.0,102899.0,80.0,98.0
2025-12-06T13:44:36.518250,4,75,103402.0,102926.0,80.0,98.0
2025-12-06T13:44:36.564391,4,76,103402.0,102926.0,80.0,98.0
2025-12-06T13:44:36.592313,4,77,103402.0,102926.0,80.0,98.0
2025-12-06T13:44:36.639259,4,78,103402.0,102926.0,80.0,98.0
2025-12-06T13:44:36.670664,4,79,103507.0,102973.0,80.0,98.0
2025-12-06T13:44:36.722010,4,80,103507.0,102973.0,80.0,98.0
2025-12-06T13:44:36.755389,4,81,103507.0,102973.0,80.0,98.0
2025-12-06T13:44:36.802560,4,82,103507.0,102973.0,80.0,98.0
2025-12-06T13:44:36.833825,4,83,103683.0,103048.0,80.0,98.0
2025-12-06T13:44:36.880711,4,84,103683.0,103048.0,80.0,98.0
2025-12-06T13:44:36.923266,4,85,103683.0,103048.0,80.0,98.0
2025-12-06T13:44:36.961957,4,86,103683.0,103048.0,80.0,98.0
2025-12-06T13:44:37.001617,4,87,103323.0,102898.0,80.0,98.0
2025-12-06T13:44:37.041276,4,88,103323.0,102898.0,80.0,98.0
2025-12-06T13:44:37.080359,4,89,103323.0,102898.0,80.0,98.0
2025-12-06T13:44:37.118297,4,90,103323.0,102898.0,80.0,98.0
2025-12-06T13:44:37.150002,4,91,103288.0,102907.0,80.0,98.0
2025-12-06T13:44:37.196903,4,92,103288.0,102907.0,80.0,98.0
2025-12-06T13:44:37.238359,4,93,103288.0,102907.0,80.0,98.0
2025-12-06T13:44:37.269991,4,94,103288.0,102907.0,80.0,98.0
2025-12-06T13:44:37.317239,4,95,103428.0,102953.0,80.0,98.0
2025-12-06T13:44:37.349371,4,96,103428.0,102953.0,80.0,98.0
2025-12-06T13:44:37.396247,4,97,103428.0,102953.0,80.0,98.0
2025-12-06T13:44:37.427475,4,98,103428.0,102953.0,80.0,98.0
2025-12-06T13:44:37.474330,4,99,103732.0,103083.0,80.0,98.0
2025-12-06T13:44:37.520919,4,100,103732.0,103083.0,80.0,98.0
2025-12-06T13:44:37.553667,4,101,103732.0,103083.0,80.0,98.0
2025-12-06T13:44:37.600176,4,102,103732.0,103083.0,80.0,98.0
2025-12-06T13:44:39.986054,5,0,103850.0,103128.0,75.0,98.0
2025-12-06T13:44:39.986054,5,1,103850.0,103128.0,75.0,98.0
2025-12-06T13:44:39.986054,5,2,103850.0,103128.0,75.0,98.0
2025-12-06T13:44:39.986054,5,3,103850.0,103128.0,75.0,98.0
2025-12-06T13:44:39.986054,5,4,103140.0,102839.0,75.0,98.0
2025-12-06T13:44:39.986054,5,5,103140.0,102839.0,75.0,98.0
2025-12-06T13:44:39.986054,5,6,103140.0,102839.0,75.0,98.0
2025-12-06T13:44:39.986054,5,7,103140.0,102839.0,75.0,98.0
2025-12-06T13:44:39.994092,5,8,102319.0,102445.0,75.0,98.0
2025-12-06T13:44:39.994092,5,9,102319.0,102445.0,75.0,98.0
2025-12-06T13:44:39.994092,5,10,102319.0,102445.0,75.0,98.0
2025-12-06T13:44:39.994092,5,11,102319.0,102445.0,75.0,98.0
2025-12-06T13:44:39.994092,5,12,102668.0,102592.0,75.0,98.0
2025-12-06T13:44:39.994092,5,13,102668.0,102592.0,75.0,98.0
2025-12-06T13:44:39.994092,5,14,102668.0,102592.0,75.0,98.0
2025-12-06T13:44:39.994092,5,15,102668.0,102592.0,75.0,98.0
2025-12-06T13:44:39.994092,5,16,102926.0,102721.0,75.0,98.0
2025-12-06T13:44:39.994092,5,17,102926.0,102721.0,75.0,98.0
2025-12-06T13:44:40.002114,5,18,102926.0,102721.0,75.0,98.0
2025-12-06T13:44:40.002114,5,19,102926.0,102721.0,75.0,98.0
2025-12-06T13:44:40.002114,5,20,102717.0,102656.0,75.0,98.0
2025-12-06T13:44:40.002114,5,21,102717.0,102656.0,75.0,98.0
2025-12-06T13:44:40.002114,5,22,102717.0,102656.0,75.0,98.0
2025-12-06T13:44:40.002114,5,23,102717.0,102656.0,75.0,98.0
2025-12-06T13:44:40.002114,5,24,102387.0,102505.0,75.0,98.0
2025-12-06T13:44:40.002114,5,25,102387.0,102505.0,75.0,98.0
2025-12-06T13:44:40.002114,5,26,102387.0,102505.0,75.0,98.0
2025-12-06T13:44:40.002114,5,27,102387.0,102505.0,75.0,98.0
2025-12-06T13:44:40.002114,5,28,102521.0,102577.0,75.0,98.0
2025-12-06T13:44:40.002114,5,29,102521.0,102577.0,75.0,98.0
2025-12-06T13:44:40.002114,5,30,102521.0,102577.0,75.0,98.0
2025-12-06T13:44:40.002114,5,31,102521.0,102577.0,75.0,98.0
2025-12-06T13:44:40.002114,5,32,102735.0,102668.0,75.0,98.0
2025-12-06T13:44:40.002114,5,33,102735.0,102668.0,75.0,98.0
2025-12-06T13:44:40.010197,5,34,102735.0,102668.0,75.0,98.0
2025-12-06T13:44:40.010197,5,35,102735.0,102668.0,75.0,98.0
2025-12-06T13:44:40.010197,5,36,103116.0,102845.0,75.0,98.0
2025-12-06T13:44:40.012087,5,37,103116.0,102845.0,75.0,98.0
2025-12-06T13:44:40.012087,5,38,103116.0,102845.0,75.0,98.0
2025-12-06T13:44:40.012087,5,39,103116.0,102845.0,75.0,98.0
2025-12-06T13:44:40.012087,5,40,103219.0,102883.0,75.0,98.0
2025-12-06T13:44:40.012087,5,41,103219.0,102883.0,75.0,98.0
2025-12-06T13:44:40.012087,5,42,103219.0,102883.0,75.0,98.0
2025-12-06T13:44:40.012087,5,43,103219.0,102883.0,75.0,98.0
2025-12-06T13:44:40.012087,5,44,102834.0,102740.0,75.0,98.0
2025-12-06T13:44:40.012087,5,45,102834.0,102740.0,75.0,98.0
2025-12-06T13:44:40.012087,5,46,102834.0,102740.0,75.0,98.0
2025-12-06T13:44:40.012087,5,47,102834.0,102740.0,75.0,98.0
2025-12-06T13:44:40.012087,5,48,103089.0,102845.0,75.0,98.0
2025-12-06T13:44:40.020684,5,49,103089.0,102845.0,75.0,98.0
2025-12-06T13:44:40.021176,5,50,103089.0,102845.0,75.0,98.0
2025-12-06T13:44:40.021176,5,51,103089.0,102845.0,75.0,98.0
2025-12-06T13:44:40.021176,5,52,103365.0,102984.0,75.0,98.0
2025-12-06T13:44:40.021176,5,53,103365.0,102984.0,75.0,98.0
2025-12-06T13:44:40.021176,5,54,103365.0,102984.0,75.0,98.0
2025-12-06T13:44:40.021176,5,55,103365.0,102984.0,75.0,98.0
2025-12-06T13:44:40.021176,5,56,103664.0,103103.0,75.0,98.0
2025-12-06T13:44:40.021176,5,57,103664.0,103103.0,75.0,98.0
2025-12-06T13:44:40.021176,5,58,103664.0,103103.0,75.0,98.0
2025-12-06T13:44:40.021176,5,59,103664.0,103103.0,75.0,98.0
2025-12-06T13:44:40.021176,5,60,103884.0,103197.0,75.0,98.0
2025-12-06T13:44:40.060724,5,61,103884.0,103197.0,75.0,98.0
2025-12-06T13:44:40.105095,5,62,103884.0,103197.0,75.0,98.0
2025-12-06T13:44:40.147997,5,63,103884.0,103197.0,75.0,98.0
2025-12-06T13:44:40.180883,5,64,103435.0,103022.0,75.0,98.0
2025-12-06T13:44:40.228007,5,65,103435.0,103022.0,75.0,98.0
2025-12-06T13:44:40.259024,5,66,103435.0,103022.0,75.0,98.0
2025-12-06T13:44:40.307074,5,67,103435.0,103022.0,75.0,98.0
2025-12-06T13:44:40.348405,5,68,103370.0,102990.0,75.0,98.0
2025-12-06T13:44:40.380451,5,69,103370.0,102990.0,75.0,98.0
2025-12-06T13:44:40.415382,5,70,103370.0,102990.0,75.0,98.0
2025-12-06T13:44:40.462268,5,71,103370.0,102990.0,75.0,98.0
2025-12-06T13:44:40.508773,5,72,103560.0,103092.0,75.0,98.0
2025-12-06T13:44:40.540413,5,73,103560.0,103092.0,75.0,98.0
2025-12-06T13:44:40.588217,5,74,103560.0,103092.0,75.0,98.0
2025-12-06T13:44:40.622071,5,75,103560.0,103092.0,75.0,98.0
2025-12-06T13:44:40.665296,5,76,103804.0,103191.0,75.0,98.0
2025-12-06T13:44:40.703679,5,77,103804.0,103191.0,75.0,98.0
2025-12-06T13:44:40.734940,5,78,103804.0,103191.0,75.0,98.0
2025-12-06T13:44:40.781838,5,79,103804.0,103191.0,75.0,98.0
2025-12-06T13:44:40.813701,5,80,104107.0,103325.0,75.0,98.0
2025-12-06T13:44:40.861269,5,81,104107.0,103325.0,75.0,98.0
2025-12-06T13:44:40.898056,5,82,104107.0,103325.0,75.0,98.0
2025-12-06T13:44:40.939376,5,83,104107.0,103325.0,75.0,98.0
2025-12-06T13:44:40.986767,5,84,104085.0,103306.0,75.0,98.0
2025-12-06T13:44:41.018365,5,85,104085.0,103306.0,75.0,98.0
2025-12-06T13:44:41.065820,5,86,104085.0,103306.0,75.0,98.0
2025-12-06T13:44:41.097608,5,87,104085.0,103306.0,75.0,98.0
2025-12-06T13:44:41.137906,5,88,103608.0,103114.0,75.0,98.0
2025-12-06T13:44:41.183098,5,89,103608.0,103114.0,75.0,98.0
2025-12-06T13:44:41.215369,5,90,103608.0,103114.0,75.0,98.0
2025-12-06T13:44:41.262245,5,91,103608.0,103114.0,75.0,98.0
2025-12-06T13:44:41.299452,5,92,103641.0,103134.0,75.0,98.0
2025-12-06T13:44:41.346087,5,93,103641.0,103134.0,75.0,98.0
2025-12-06T13:44:41.379508,5,94,103641.0,103134.0,75.0,98.0
2025-12-06T13:44:41.414191,5,95,103641.0,103134.0,75.0,98.0
2025-12-06T13:44:41.461977,5,96,103435.0,103033.0,75.0,98.0
2025-12-06T13:44:41.493608,5,97,103435.0,103033.0,75.0,98.0
2025-12-06T13:44:41.530035,5,98,103435.0,103033.0,75.0,98.0
2025-12-06T13:44:41.577109,5,99,103435.0,103033.0,75.0,98.0
2025-12-06T13:44:41.623863,5,100,103697.0,103141.0,75.0,98.0
2025-12-06T13:44:41.664174,5,101,103697.0,103141.0,75.0,98.0
2025-12-06T13:44:41.694310,5,102,103697.0,103141.0,75.0,98.0
2025-12-06T13:44:41.741579,5,103,103697.0,103141.0,75.0,98.0
2025-12-06T13:44:41.772829,5,104,103742.0,103157.0,75.0,98.0
2025-12-06T13:44:41.819700,5,105,103742.0,103157.0,75.0,98.0
2025-12-06T13:44:41.850953,5,106,103742.0,103157.0,75.0,98.0
2025-12-06T13:44:41.902525,5,107,103742.0,103157.0,75.0,98.0
2025-12-06T13:44:41.933943,5,108,103332.0,102962.0,75.0,98.0
2025-12-06T13:44:41.981099,5,109,103332.0,102962.0,75.0,98.0
2025-12-06T13:44:42.012345,5,110,103332.0,102962.0,75.0,98.0
2025-12-06T13:44:43.792102,6,0,103332.0,102962.0,72.0,98.0
2025-12-06T13:44:43.792102,6,1,103366.0,102979.0,72.0,98.0
2025-12-06T13:44:43.792102,6,2,103366.0,102979.0,72.0,98.0
2025-12-06T13:44:43.798284,6,3,103366.0,102979.0,72.0,98.0
2025-12-06T13:44:43.798741,6,4,103366.0,102979.0,72.0,98.0
2025-12-06T13:44:43.798741,6,5,103890.0,103214.0,72.0,98.0
2025-12-06T13:44:43.803513,6,6,103890.0,103214.0,72.0,98.0
2025-12-06T13:44:43.804188,6,7,103890.0,103214.0,72.0,98.0
2025-12-06T13:44:43.805333,6,8,103890.0,103214.0,72.0,98.0
2025-12-06T13:44:43.805333,6,9,104983.0,103658.0,72.0,98.0
2025-12-06T13:44:43.805333,6,10,104983.0,103658.0,72.0,98.0
2025-12-06T13:44:43.805333,6,11,104983.0,103658.0,72.0,98.0
2025-12-06T13:44:43.805333,6,12,104983.0,103658.0,72.0,98.0
2025-12-06T13:44:43.805333,6,13,106006.0,104100.0,72.0,98.0
2025-12-06T13:44:43.808628,6,14,106006.0,104100.0,72.0,98.0
2025-12-06T13:44:43.810540,6,15,106006.0,104100.0,72.0,98.0
2025-12-06T13:44:43.812536,6,16,106006.0,104100.0,72.0,98.0
2025-12-06T13:44:43.812536,6,17,106406.0,104258.0,72.0,98.0
2025-12-06T13:44:43.812536,6,18,106406.0,104258.0,72.0,98.0
2025-12-06T13:44:43.812536,6,19,106406.0,104258.0,72.0,98.0
2025-12-06T13:44:43.812536,6,20,106406.0,104258.0,72.0,98.0
2025-12-06T13:44:43.812536,6,21,106011.0,104118.0,72.0,98.0
2025-12-06T13:44:43.812536,6,22,106011.0,104118.0,72.0,98.0
2025-12-06T13:44:43.812536,6,23,106011.0,104118.0,72.0,98.0
2025-12-06T13:44:43.812536,6,24,106011.0,104118.0,72.0,98.0
2025-12-06T13:44:43.812536,6,25,105910.0,104074.0,72.0,98.0
2025-12-06T13:44:43.812536,6,26,105910.0,104074.0,72.0,98.0
2025-12-06T13:44:43.820564,6,27,105910.0,104074.0,72.0,98.0
2025-12-06T13:44:43.820564,6,28,105910.0,104074.0,72.0,98.0
2025-12-06T13:44:43.820564,6,29,105862.0,104066.0,72.0,98.0
2025-12-06T13:44:43.820564,6,30,105862.0,104066.0,72.0,98.0
2025-12-06T13:44:43.820564,6,31,105862.0,104066.0,72.0,98.0
2025-12-06T13:44:43.820564,6,32,105862.0,104066.0,72.0,98.0
2025-12-06T13:44:43.820564,6,33,106034.0,104131.0,72.0,98.0
2025-12-06T13:44:43.820564,6,34,106034.0,104131.0,72.0,98.0
2025-12-06T13:44:43.825329,6,35,106034.0,104131.0,72.0,98.0
2025-12-06T13:44:43.825329,6,36,106034.0,104131.0,72.0,98.0
2025-12-06T13:44:43.825329,6,37,106226.0,104185.0,72.0,98.0
2025-12-06T13:44:43.825329,6,38,106226.0,104185.0,72.0,98.0
2025-12-06T13:44:43.825329,6,39,106226.0,104185.0,72.0,98.0
2025-12-06T13:44:43.825329,6,40,106226.0,104185.0,72.0,98.0
2025-12-06T13:44:43.825329,6,41,106399.0,104260.0,72.0,98.0
2025-12-06T13:44:43.825329,6,42,106399.0,104260.0,72.0,98.0
2025-12-06T13:44:43.825329,6,43,106399.0,104260.0,72.0,98.0
2025-12-06T13:44:43.825329,6,44,106399.0,104260.0,72.0,98.0
2025-12-06T13:44:43.854144,6,45,105925.0,104095.0,72.0,98.0
2025-12-06T13:44:43.887001,6,46,105925.0,104095.0,72.0,98.0
2025-12-06T13:44:43.935525,6,47,105925.0,104095.0,72.0,98.0
2025-12-06T13:44:43.967248,6,48,105925.0,104095.0,72.0,98.0
2025-12-06T13:44:44.014136,6,49,105965.0,104104.0,72.0,98.0
2025-12-06T13:44:44.045388,6,50,105965.0,104104.0,72.0,98.0
2025-12-06T13:44:44.092269,6,51,105965.0,104104.0,72.0,98.0
2025-12-06T13:44:44.123523,6,52,105965.0,104104.0,72.0,98.0
2025-12-06T13:44:44.171472,6,53,106146.0,104178.0,72.0,98.0
2025-12-06T13:44:44.203056,6,54,106146.0,104178.0,72.0,98.0
2025-12-06T13:44:44.252267,6,55,106146.0,104178.0,72.0,98.0
2025-12-06T13:44:44.286882,6,56,106146.0,104178.0,72.0,98.0
2025-12-06T13:44:44.334786,6,57,106487.0,104301.0,72.0,98.0
2025-12-06T13:44:44.366287,6,58,106487.0,104301.0,72.0,98.0
2025-12-06T13:44:44.413965,6,59,106487.0,104301.0,72.0,98.0
2025-12-06T13:44:44.445604,6,60,106487.0,104301.0,72.0,98.0
2025-12-06T13:44:44.492472,6,61,106782.0,104422.0,72.0,98.0
2025-12-06T13:44:44.523716,6,62,106782.0,104422.0,72.0,98.0
2025-12-06T13:44:44.571294,6,63,106782.0,104422.0,72.0,98.0
2025-12-06T13:44:44.602770,6,64,106782.0,104422.0,72.0,98.0
2025-12-06T13:44:44.649781,6,65,106755.0,104418.0,72.0,98.0
2025-12-06T13:44:44.681425,6,66,106755.0,104418.0,72.0,98.0
2025-12-06T13:44:44.728892,6,67,106755.0,104418.0,72.0,98.0
2025-12-06T13:44:44.763853,6,68,106755.0,104418.0,72.0,98.0
2025-12-06T13:44:44.802772,6,69,106397.0,104283.0,72.0,98.0
2025-12-06T13:44:44.850660,6,70,106397.0,104283.0,72.0,98.0
2025-12-06T13:44:44.881923,6,71,106397.0,104283.0,72.0,98.0
2025-12-06T13:44:44.930393,6,72,106397.0,104283.0,72.0,98.0
2025-12-06T13:44:44.961643,6,73,106347.0,104267.0,72.0,98.0
2025-12-06T13:44:45.008521,6,74,106347.0,104267.0,72.0,98.0
2025-12-06T13:44:45.041437,6,75,106347.0,104267.0,72.0,98.0
2025-12-06T13:44:45.088880,6,76,106347.0,104267.0,72.0,98.0
2025-12-06T13:44:45.120173,6,77,106546.0,104347.0,72.0,98.0
2025-12-06T13:44:45.169852,6,78,106546.0,104347.0,72.0,98.0
2025-12-06T13:44:45.198985,6,79,106546.0,104347.0,72.0,98.0
2025-12-06T13:44:45.246489,6,80,106546.0,104347.0,72.0,98.0
2025-12-06T13:44:45.290061,6,81,106762.0,104446.0,72.0,98.0
2025-12-06T13:44:45.328732,6,82,106762.0,104446.0,72.0,98.0
2025-12-06T13:44:45.370179,6,83,106762.0,104446.0,72.0,98.0
2025-12-06T13:44:45.401960,6,84,106762.0,104446.0,72.0,98.0
2025-12-06T13:44:45.449994,6,85,107010.0,104517.0,72.0,98.0
2025-12-06T13:44:45.482389,6,86,107010.0,104517.0,72.0,98.0
2025-12-06T13:44:45.515686,6,87,107010.0,104517.0,72.0,98.0
2025-12-06T13:44:45.562959,6,88,107010.0,104517.0,72.0,98.0
2025-12-06T13:44:45.609456,6,89,106406.0,104293.0,72.0,98.0
2025-12-06T13:44:45.647504,6,90,106406.0,104293.0,72.0,98.0
2025-12-06T13:44:45.678970,6,91,106406.0,104293.0,72.0,98.0
2025-12-06T13:44:45.725863,6,92,106406.0,104293.0,72.0,98.0
2025-12-06T13:44:45.757909,6,93,106253.0,104245.0,72.0,98.0
2025-12-06T13:44:45.801214,6,94,106253.0,104245.0,72.0,98.0
2025-12-06T13:44:48.979625,7,0,106253.0,104245.0,68.0,99.0
2025-12-06T13:44:48.979625,7,1,106253.0,104245.0,68.0,99.0
2025-12-06T13:44:48.979625,7,2,106302.0,104261.0,68.0,99.0
2025-12-06T13:44:48.979625,7,3,106302.0,104261.0,68.0,99.0
2025-12-06T13:44:48.983825,7,4,106302.0,104261.0,68.0,99.0
2025-12-06T13:44:48.983825,7,5,106302.0,104261.0,68.0,99.0
2025-12-06T13:44:48.983825,7,6,106468.0,104340.0,68.0,99.0
2025-12-06T13:44:48.985220,7,7,106468.0,104340.0,68.0,99.0
2025-12-06T13:44:48.986329,7,8,106468.0,104340.0,68.0,99.0
2025-12-06T13:44:48.986329,7,9,106468.0,104340.0,68.0,99.0
2025-12-06T13:44:48.986329,7,10,106649.0,104406.0,68.0,99.0
2025-12-06T13:44:48.989240,7,11,106649.0,104406.0,68.0,99.0
2025-12-06T13:44:48.990370,7,12,106649.0,104406.0,68.0,99.0
2025-12-06T13:44:48.990370,7,13,106649.0,104406.0,68.0,99.0
2025-12-06T13:44:48.990370,7,14,106415.0,104329.0,68.0,99.0
2025-12-06T13:44:48.990370,7,15,106415.0,104329.0,68.0,99.0
2025-12-06T13:44:48.993441,7,16,106415.0,104329.0,68.0,99.0
2025-12-06T13:44:48.993807,7,17,106415.0,104329.0,68.0,99.0
2025-12-06T13:44:48.995650,7,18,106252.0,104241.0,68.0,99.0
2025-12-06T13:44:48.996204,7,19,106252.0,104241.0,68.0,99.0
2025-12-06T13:44:48.996204,7,20,106252.0,104241.0,68.0,99.0
2025-12-06T13:44:48.996204,7,21,106252.0,104241.0,68.0,99.0
2025-12-06T13:44:48.996204,7,22,106234.0,104237.0,68.0,99.0
2025-12-06T13:44:48.996204,7,23,106234.0,104237.0,68.0,99.0
2025-12-06T13:44:48.996204,7,24,106234.0,104237.0,68.0,99.0
2025-12-06T13:44:48.996204,7,25,106234.0,104237.0,68.0,99.0
2025-12-06T13:44:49.002612,7,26,106511.0,104317.0,68.0,99.0
2025-12-06T13:44:49.003839,7,27,106511.0,104317.0,68.0,99.0
2025-12-06T13:44:49.003839,7,28,106511.0,104317.0,68.0,99.0
2025-12-06T13:44:49.003839,7,29,106511.0,104317.0,68.0,99.0
2025-12-06T13:44:49.003839,7,30,106636.0,104363.0,68.0,99.0
2025-12-06T13:44:49.006115,7,31,106636.0,104363.0,68.0,99.0
2025-12-06T13:44:49.006115,7,32,106636.0,104363.0,68.0,99.0
2025-12-06T13:44:49.006115,7,33,106636.0,104363.0,68.0,99.0
2025-12-06T13:44:49.006115,7,34,106667.0,104382.0,68.0,99.0
2025-12-06T13:44:49.006115,7,35,106667.0,104382.0,68.0,99.0
2025-12-06T13:44:49.006115,7,36,106667.0,104382.0,68.0,99.0
2025-12-06T13:44:49.006115,7,37,106667.0,104382.0,68.0,99.0
2025-12-06T13:44:49.006115,7,38,105883.0,104078.0,68.0,99.0
2025-12-06T13:44:49.006115,7,39,105883.0,104078.0,68.0,99.0
2025-12-06T13:44:49.006115,7,40,105883.0,104078.0,68.0,99.0
2025-12-06T13:44:49.006115,7,41,105883.0,104078.0,68.0,99.0
2025-12-06T13:44:49.006115,7,42,105749.0,104039.0,68.0,99.0
2025-12-06T13:44:49.006115,7,43,105749.0,104039.0,68.0,99.0
2025-12-06T13:44:49.006115,7,44,105749.0,104039.0,68.0,99.0
2025-12-06T13:44:49.006115,7,45,105749.0,104039.0,68.0,99.0
2025-12-06T13:44:49.006115,7,46,105794.0,104060.0,68.0,99.0
2025-12-06T13:44:49.006115,7,47,105794.0,104060.0,68.0,99.0
2025-12-06T13:44:49.006115,7,48,105794.0,104060.0,68.0,99.0
2025-12-06T13:44:49.006115,7,49,105794.0,104060.0,68.0,99.0
2025-12-06T13:44:49.006115,7,50,105938.0,104106.0,68.0,99.0
2025-12-06T13:44:49.014266,7,51,105938.0,104106.0,68.0,99.0
2025-12-06T13:44:49.014266,7,52,105938.0,104106.0,68.0,99.0
2025-12-06T13:44:49.014266,7,53,105938.0,104106.0,68.0,99.0
2025-12-06T13:44:49.014266,7,54,106165.0,104171.0,68.0,99.0
2025-12-06T13:44:49.014266,7,55,106165.0,104171.0,68.0,99.0
2025-12-06T13:44:49.014266,7,56,106165.0,104171.0,68.0,99.0
2025-12-06T13:44:49.014266,7,57,106165.0,104171.0,68.0,99.0
2025-12-06T13:44:49.014266,7,58,105822.0,104044.0,68.0,99.0
2025-12-06T13:44:49.014266,7,59,105822.0,104044.0,68.0,99.0
2025-12-06T13:44:49.019244,7,60,105822.0,104044.0,68.0,99.0
2025-12-06T13:44:49.019244,7,61,105822.0,104044.0,68.0,99.0
2025-12-06T13:44:49.019244,7,62,105605.0,103951.0,68.0,99.0
2025-12-06T13:44:49.019244,7,63,105605.0,103951.0,68.0,99.0
2025-12-06T13:44:49.019244,7,64,105605.0,103951.0,68.0,99.0
2025-12-06T13:44:49.019244,7,65,105605.0,103951.0,68.0,99.0
2025-12-06T13:44:49.019244,7,66,105673.0,103946.0,68.0,99.0
2025-12-06T13:44:49.019244,7,67,105673.0,103946.0,68.0,99.0
2025-12-06T13:44:49.023788,7,68,105673.0,103946.0,68.0,99.0
2025-12-06T13:44:49.023788,7,69,105673.0,103946.0,68.0,99.0
2025-12-06T13:44:49.023788,7,70,105931.0,104030.0,68.0,99.0
2025-12-06T13:44:49.023788,7,71,105931.0,104030.0,68.0,99.0
2025-12-06T13:44:49.023788,7,72,105931.0,104030.0,68.0,99.0
2025-12-06T13:44:49.023788,7,73,105931.0,104030.0,68.0,99.0
2025-12-06T13:44:49.023788,7,74,106151.0,104114.0,68.0,99.0
2025-12-06T13:44:49.023788,7,75,106151.0,104114.0,68.0,99.0
2025-12-06T13:44:49.023788,7,76,106151.0,104114.0,68.0,99.0
2025-12-06T13:44:49.023788,7,77,106151.0,104114.0,68.0,99.0
2025-12-06T13:44:49.023788,7,78,106204.0,104114.0,68.0,99.0
2025-12-06T13:44:49.023788,7,79,106204.0,104114.0,68.0,99.0
2025-12-06T13:44:49.035998,7,80,106204.0,104114.0,68.0,99.0
2025-12-06T13:44:49.069162,7,81,106204.0,104114.0,68.0,99.0
2025-12-06T13:44:49.116592,7,82,105727.0,103942.0,68.0,99.0
2025-12-06T13:44:49.148856,7,83,105727.0,103942.0,68.0,99.0
2025-12-06T13:44:49.195354,7,84,105727.0,103942.0,68.0,99.0
2025-12-06T13:44:49.228082,7,85,105727.0,103942.0,68.0,99.0
2025-12-06T13:44:49.277119,7,86,105729.0,103923.0,68.0,99.0
2025-12-06T13:44:49.302442,7,87,105729.0,103923.0,68.0,99.0
2025-12-06T13:44:49.354532,7,88,105729.0,103923.0,68.0,99.0
2025-12-06T13:44:49.380742,7,89,105729.0,103923.0,68.0,99.0
2025-12-06T13:44:49.431228,7,90,105861.0,103978.0,68.0,99.0
2025-12-06T13:44:49.463915,7,91,105861.0,103978.0,68.0,99.0
2025-12-06T13:44:49.512274,7,92,105861.0,103978.0,68.0,99.0
2025-12-06T13:44:49.543535,7,93,105861.0,103978.0,68.0,99.0
2025-12-06T13:44:49.590409,7,94,106092.0,104052.0,68.0,99.0
2025-12-06T13:44:49.622562,7,95,106092.0,104052.0,68.0,99.0
2025-12-06T13:44:49.669794,7,96,106092.0,104052.0,68.0,99.0
2025-12-06T13:44:49.701859,7,97,106092.0,104052.0,68.0,99.0
2025-12-06T13:44:49.748206,7,98,106243.0,104106.0,68.0,99.0
2025-12-06T13:44:49.780179,7,99,106243.0,104106.0,68.0,99.0
2025-12-06T13:44:49.818517,7,100,106243.0,104106.0,68.0,99.0
2025-12-06T13:44:49.872064,7,101,106243.0,104106.0,68.0,99.0
2025-12-06T13:44:49.909359,7,102,105613.0,103855.0,68.0,99.0
2025-12-06T13:44:49.941147,7,103,105613.0,103855.0,68.0,99.0
2025-12-06T13:44:49.988485,7,104,105613.0,103855.0,68.0,99.0
2025-12-06T13:44:50.019428,7,105,105613.0,103855.0,68.0,99.0
2025-12-06T13:44:50.066575,7,106,105553.0,103821.0,68.0,99.0
2025-12-06T13:44:50.110480,7,107,105553.0,103821.0,68.0,99.0
2025-12-06T13:44:50.142006,7,108,105553.0,103821.0,68.0,99.0
2025-12-06T13:44:50.189011,7,109,105553.0,103821.0,68.0,99.0
2025-12-06T13:44:50.220263,7,110,105725.0,103892.0,68.0,99.0
2025-12-06T13:44:50.269700,7,111,105725.0,103892.0,68.0,99.0
2025-12-06T13:44:50.306651,7,112,105725.0,103892.0,68.0,99.0
2025-12-06T13:44:50.349846,7,113,105725.0,103892.0,68.0,99.0
2025-12-06T13:44:50.389067,7,114,105937.0,103950.0,68.0,99.0
2025-12-06T13:44:50.422151,7,115,105937.0,103950.0,68.0,99.0
2025-12-06T13:44:50.455892,7,116,105937.0,103950.0,68.0,99.0
2025-12-06T13:44:50.502621,7,117,105937.0,103950.0,68.0,99.0
2025-12-06T13:44:50.549700,7,118,106096.0,104026.0,68.0,99.0
2025-12-06T13:44:50.581314,7,119,106096.0,104026.0,68.0,99.0
2025-12-06T13:44:50.628410,7,120,106096.0,104026.0,68.0,99.0
2025-12-06T13:44:50.660061,7,121,106096.0,104026.0,68.0,99.0
2025-12-06T13:44:50.701278,7,122,105643.0,103870.0,68.0,99.0
2025-12-06T13:44:50.748263,7,123,105643.0,103870.0,68.0,99.0
2025-12-06T13:44:50.779766,7,124,105643.0,103870.0,68.0,99.0
2025-12-06T13:44:50.826748,7,125,105643.0,103870.0,68.0,99.0
2025-12-06T13:44:50.869065,7,126,105546.0,103797.0,68.0,99.0
2025-12-06T13:44:50.900494,7,127,105546.0,103797.0,68.0,99.0
2025-12-06T13:44:50.942308,7,128,105546.0,103797.0,68.0,99.0
2025-12-06T13:44:50.974261,7,129,105546.0,103797.0,68.0,99.0
2025-12-06T13:44:51.021134,7,130,105651.0,103826.0,68.0,99.0
2025-12-06T13:44:53.403266,8,0,105651.0,103826.0,69.0,99.0
2025-12-06T13:44:53.405210,8,1,105651.0,103826.0,69.0,99.0
2025-12-06T13:44:53.405210,8,2,105651.0,103826.0,69.0,99.0
2025-12-06T13:44:53.405210,8,3,105799.0,103891.0,69.0,99.0
2025-12-06T13:44:53.407719,8,4,105799.0,103891.0,69.0,99.0
2025-12-06T13:44:53.407872,8,5,105799.0,103891.0,69.0,99.0
2025-12-06T13:44:53.407872,8,6,105799.0,103891.0,69.0,99.0
2025-12-06T13:44:53.407872,8,7,105987.0,103953.0,69.0,99.0
2025-12-06T13:44:53.407872,8,8,105987.0,103953.0,69.0,99.0
2025-12-06T13:44:53.407872,8,9,105987.0,103953.0,69.0,99.0
2025-12-06T13:44:53.407872,8,10,105987.0,103953.0,69.0,99.0
2025-12-06T13:44:53.407872,8,11,106185.0,104017.0,69.0,99.0
2025-12-06T13:44:53.407872,8,12,106185.0,104017.0,69.0,99.0
2025-12-06T13:44:53.407872,8,13,106185.0,104017.0,69.0,99.0
2025-12-06T13:44:53.417544,8,14,106185.0,104017.0,69.0,99.0
2025-12-06T13:44:53.417544,8,15,105402.0,103712.0,69.0,99.0
2025-12-06T13:44:53.418736,8,16,105402.0,103712.0,69.0,99.0
2025-12-06T13:44:53.418736,8,17,105402.0,103712.0,69.0,99.0
2025-12-06T13:44:53.418736,8,18,105402.0,103712.0,69.0,99.0
2025-12-06T13:44:53.421620,8,19,105217.0,103652.0,69.0,99.0
2025-12-06T13:44:53.421620,8,20,105217.0,103652.0,69.0,99.0
2025-12-06T13:44:53.423272,8,21,105217.0,103652.0,69.0,99.0
2025-12-06T13:44:53.423272,8,22,105217.0,103652.0,69.0,99.0
2025-12-06T13:44:53.423272,8,23,105282.0,103671.0,69.0,99.0
2025-12-06T13:44:53.423272,8,24,105282.0,103671.0,69.0,99.0
2025-12-06T13:44:53.423272,8,25,105282.0,103671.0,69.0,99.0
2025-12-06T13:44:53.426120,8,26,105282.0,103671.0,69.0,99.0
2025-12-06T13:44:53.427454,8,27,105484.0,103744.0,69.0,99.0
2025-12-06T13:44:53.428175,8,28,105484.0,103744.0,69.0,99.0
2025-12-06T13:44:53.430340,8,29,105484.0,103744.0,69.0,99.0
2025-12-06T13:44:53.430340,8,30,105484.0,103744.0,69.0,99.0
2025-12-06T13:44:53.430340,8,31,105627.0,103812.0,69.0,99.0
2025-12-06T13:44:53.430340,8,32,105627.0,103812.0,69.0,99.0
2025-12-06T13:44:53.430340,8,33,105627.0,103812.0,69.0,99.0
2025-12-06T13:44:53.430340,8,34,105627.0,103812.0,69.0,99.0
2025-12-06T13:44:53.430340,8,35,104892.0,103528.0,69.0,99.0
2025-12-06T13:44:53.430340,8,36,104892.0,103528.0,69.0,99.0
2025-12-06T13:44:53.430340,8,37,104892.0,103528.0,69.0,99.0
2025-12-06T13:44:53.437217,8,38,104892.0,103528.0,69.0,99.0
2025-12-06T13:44:53.437217,8,39,104602.0,103424.0,69.0,99.0
2025-12-06T13:44:53.437217,8,40,104602.0,103424.0,69.0,99.0
2025-12-06T13:44:53.437217,8,41,104602.0,103424.0,69.0,99.0
2025-12-06T13:44:53.437217,8,42,104602.0,103424.0,69.0,99.0
2025-12-06T13:44:53.437217,8,43,104619.0,103430.0,69.0,99.0
2025-12-06T13:44:53.437217,8,44,104619.0,103430.0,69.0,99.0
2025-12-06T13:44:53.437217,8,45,104619.0,103430.0,69.0,99.0
2025-12-06T13:44:53.437217,8,46,104619.0,103430.0,69.0,99.0
2025-12-06T13:44:53.437217,8,47,104781.0,103510.0,69.0,99.0
2025-12-06T13:44:53.446803,8,48,104781.0,103510.0,69.0,99.0
2025-12-06T13:44:53.447105,8,49,104781.0,103510.0,69.0,99.0
2025-12-06T13:44:53.447105,8,50,104781.0,103510.0,69.0,99.0
2025-12-06T13:44:53.447105,8,51,104956.0,103568.0,69.0,99.0
2025-12-06T13:44:53.447105,8,52,104956.0,103568.0,69.0,99.0
2025-12-06T13:44:53.447105,8,53,104956.0,103568.0,69.0,99.0
2025-12-06T13:44:53.447105,8,54,104956.0,103568.0,69.0,99.0
2025-12-06T13:44:53.450639,8,55,105157.0,103653.0,69.0,99.0
2025-12-06T13:44:53.450639,8,56,105157.0,103653.0,69.0,99.0
2025-12-06T13:44:53.452604,8,57,105157.0,103653.0,69.0,99.0
2025-12-06T13:44:53.452604,8,58,105157.0,103653.0,69.0,99.0
2025-12-06T13:44:53.452604,8,59,104405.0,103381.0,69.0,99.0
2025-12-06T13:44:53.452604,8,60,104405.0,103381.0,69.0,99.0
2025-12-06T13:44:53.494122,8,61,104405.0,103381.0,69.0,99.0
2025-12-06T13:44:53.534440,8,62,104405.0,103381.0,69.0,99.0
2025-12-06T13:44:53.566381,8,63,104409.0,103384.0,69.0,99.0
2025-12-06T13:44:53.613596,8,64,104409.0,103384.0,69.0,99.0
2025-12-06T13:44:53.644872,8,65,104409.0,103384.0,69.0,99.0
2025-12-06T13:44:53.692955,8,66,104409.0,103384.0,69.0,99.0
2025-12-06T13:44:53.726211,8,67,104579.0,103466.0,69.0,99.0
2025-12-06T13:44:53.773130,8,68,104579.0,103466.0,69.0,99.0
2025-12-06T13:44:53.804359,8,69,104579.0,103466.0,69.0,99.0
2025-12-06T13:44:53.850904,8,70,104579.0,103466.0,69.0,99.0
2025-12-06T13:44:53.897737,8,71,104805.0,103559.0,69.0,99.0
2025-12-06T13:44:53.933975,8,72,104805.0,103559.0,69.0,99.0
2025-12-06T13:44:53.970460,8,73,104805.0,103559.0,69.0,99.0
2025-12-06T13:44:54.002456,8,74,104805.0,103559.0,69.0,99.0
2025-12-06T13:44:54.049567,8,75,105074.0,103670.0,69.0,99.0
2025-12-06T13:44:54.096112,8,76,105074.0,103670.0,69.0,99.0
2025-12-06T13:44:54.127760,8,77,105074.0,103670.0,69.0,99.0
2025-12-06T13:44:54.174600,8,78,105074.0,103670.0,69.0,99.0
2025-12-06T13:44:54.205911,8,79,104677.0,103518.0,69.0,99.0
2025-12-06T13:44:54.253292,8,80,104677.0,103518.0,69.0,99.0
2025-12-06T13:44:54.284539,8,81,104677.0,103518.0,69.0,99.0
2025-12-06T13:44:54.332596,8,82,104677.0,103518.0,69.0,99.0
2025-12-06T13:44:54.364430,8,83,104482.0,103476.0,69.0,99.0
2025-12-06T13:44:54.411322,8,84,104482.0,103476.0,69.0,99.0
2025-12-06T13:44:54.451037,8,85,104482.0,103476.0,69.0,99.0
2025-12-06T13:44:54.481255,8,86,104482.0,103476.0,69.0,99.0
2025-12-06T13:44:54.529697,8,87,104576.0,103529.0,69.0,99.0
2025-12-06T13:44:54.561000,8,88,104576.0,103529.0,69.0,99.0
2025-12-06T13:44:54.607818,8,89,104576.0,103529.0,69.0,99.0
2025-12-06T13:44:54.639331,8,90,104576.0,103529.0,69.0,99.0
2025-12-06T13:44:54.686758,8,91,104850.0,103632.0,69.0,99.0
2025-12-06T13:44:54.733352,8,92,104850.0,103632.0,69.0,99.0
2025-12-06T13:44:54.764879,8,93,104850.0,103632.0,69.0,99.0
2025-12-06T13:44:54.811764,8,94,104850.0,103632.0,69.0,99.0
2025-12-06T13:44:54.849153,8,95,105089.0,103747.0,69.0,99.0
2025-12-06T13:44:54.880632,8,96,105089.0,103747.0,69.0,99.0
2025-12-06T13:44:54.927537,8,97,105089.0,103747.0,69.0,99.0
2025-12-06T13:44:54.971187,8,98,105089.0,103747.0,69.0,99.0
2025-12-06T13:44:55.001594,8,99,105233.0,103799.0,69.0,99.0
2025-12-06T13:44:55.049078,8,100,105233.0,103799.0,69.0,99.0
2025-12-06T13:44:55.080338,8,101,105233.0,103799.0,69.0,99.0
2025-12-06T13:44:55.127864,8,102,105233.0,103799.0,69.0,99.0
2025-12-06T13:44:55.159558,8,103,104535.0,103535.0,69.0,99.0
2025-12-06T13:44:55.207374,8,104,104535.0,103535.0,69.0,99.0
2025-12-06T13:44:55.238627,8,105,104535.0,103535.0,69.0,99.0
2025-12-06T13:44:55.286753,8,106,104535.0,103535.0,69.0,99.0
2025-12-06T13:44:55.318423,8,107,104587.0,103561.0,69.0,99.0
2025-12-06T13:44:55.365710,8,108,104587.0,103561.0,69.0,99.0
2025-12-06T13:44:55.397700,8,109,104587.0,103561.0,69.0,99.0
2025-12-06T13:44:55.445676,8,110,104587.0,103561.0,69.0,99.0
2025-12-06T13:44:57.773737,9,0,104851.0,103681.0,70.0,99.0
2025-12-06T13:44:57.773737,9,1,104851.0,103681.0,70.0,99.0
2025-12-06T13:44:57.773737,9,2,104851.0,103681.0,70.0,99.0
2025-12-06T13:44:57.778244,9,3,104851.0,103681.0,70.0,99.0
2025-12-06T13:44:57.778407,9,4,105140.0,103787.0,70.0,99.0
2025-12-06T13:44:57.778407,9,5,105140.0,103787.0,70.0,99.0
2025-12-06T13:44:57.778407,9,6,105140.0,103787.0,70.0,99.0
2025-12-06T13:44:57.778407,9,7,105140.0,103787.0,70.0,99.0
2025-12-06T13:44:57.784696,9,8,105404.0,103913.0,70.0,99.0
2025-12-06T13:44:57.784696,9,9,105404.0,103913.0,70.0,99.0
2025-12-06T13:44:57.787376,9,10,105404.0,103913.0,70.0,99.0
2025-12-06T13:44:57.787747,9,11,105404.0,103913.0,70.0,99.0
2025-12-06T13:44:57.788878,9,12,105108.0,103803.0,70.0,99.0
2025-12-06T13:44:57.788878,9,13,105108.0,103803.0,70.0,99.0
2025-12-06T13:44:57.788878,9,14,105108.0,103803.0,70.0,99.0
2025-12-06T13:44:57.788878,9,15,105108.0,103803.0,70.0,99.0
2025-12-06T13:44:57.793761,9,16,104881.0,103713.0,70.0,99.0
2025-12-06T13:44:57.795289,9,17,104881.0,103713.0,70.0,99.0
2025-12-06T13:44:57.797434,9,18,104881.0,103713.0,70.0,99.0
2025-12-06T13:44:57.797434,9,19,104881.0,103713.0,70.0,99.0
2025-12-06T13:44:57.797434,9,20,105026.0,103758.0,70.0,99.0
2025-12-06T13:44:57.799890,9,21,105026.0,103758.0,70.0,99.0
2025-12-06T13:44:57.799890,9,22,105026.0,103758.0,70.0,99.0
2025-12-06T13:44:57.799890,9,23,105026.0,103758.0,70.0,99.0
2025-12-06T13:44:57.799890,9,24,105342.0,103910.0,70.0,99.0
2025-12-06T13:44:57.799890,9,25,105342.0,103910.0,70.0,99.0
2025-12-06T13:44:57.799890,9,26,105342.0,103910.0,70.0,99.0
2025-12-06T13:44:57.799890,9,27,105342.0,103910.0,70.0,99.0
2025-12-06T13:44:57.808042,9,28,105622.0,104016.0,70.0,99.0
2025-12-06T13:44:57.809008,9,29,105622.0,104016.0,70.0,99.0
2025-12-06T13:44:57.809008,9,30,105622.0,104016.0,70.0,99.0
2025-12-06T13:44:57.809008,9,31,105622.0,104016.0,70.0,99.0
2025-12-06T13:44:57.809008,9,32,105885.0,104106.0,70.0,99.0
2025-12-06T13:44:57.809008,9,33,105885.0,104106.0,70.0,99.0
2025-12-06T13:44:57.809008,9,34,105885.0,104106.0,70.0,99.0
2025-12-06T13:44:57.809008,9,35,105885.0,104106.0,70.0,99.0
2025-12-06T13:44:57.809008,9,36,105231.0,103845.0,70.0,99.0
2025-12-06T13:44:57.809008,9,37,105231.0,103845.0,70.0,99.0
2025-12-06T13:44:57.809008,9,38,105231.0,103845.0,70.0,99.0
2025-12-06T13:44:57.809008,9,39,105231.0,103845.0,70.0,99.0
2025-12-06T13:44:57.809008,9,40,105253.0,103871.0,70.0,99.0
2025-12-06T13:44:57.809008,9,41,105253.0,103871.0,70.0,99.0
2025-12-06T13:44:57.809008,9,42,105253.0,103871.0,70.0,99.0
2025-12-06T13:44:57.809008,9,43,105253.0,103871.0,70.0,99.0
2025-12-06T13:44:57.809008,9,44,105508.0,103943.0,70.0,99.0
2025-12-06T13:44:57.809008,9,45,105508.0,103943.0,70.0,99.0
2025-12-06T13:44:57.816332,9,46,105508.0,103943.0,70.0,99.0
2025-12-06T13:44:57.816332,9,47,105508.0,103943.0,70.0,99.0
2025-12-06T13:44:57.818658,9,48,105748.0,104043.0,70.0,99.0
2025-12-06T13:44:57.818658,9,49,105748.0,104043.0,70.0,99.0
2025-12-06T13:44:57.818658,9,50,105748.0,104043.0,70.0,99.0
2025-12-06T13:44:57.818658,9,51,105748.0,104043.0,70.0,99.0
2025-12-06T13:44:57.818658,9,52,105947.0,104129.0,70.0,99.0
2025-12-06T13:44:57.818658,9,53,105947.0,104129.0,70.0,99.0
2025-12-06T13:44:57.818658,9,54,105947.0,104129.0,70.0,99.0
2025-12-06T13:44:57.818658,9,55,105947.0,104129.0,70.0,99.0
2025-12-06T13:44:57.818658,9,56,105505.0,103947.0,70.0,99.0
2025-12-06T13:44:57.818658,9,57,105505.0,103947.0,70.0,99.0
2025-12-06T13:44:57.818658,9,58,105505.0,103947.0,70.0,99.0
2025-12-06T13:44:57.840672,9,59,105505.0,103947.0,70.0,99.0
2025-12-06T13:44:57.882365,9,60,105261.0,103857.0,70.0,99.0
2025-12-06T13:44:57.916620,9,61,105261.0,103857.0,70.0,99.0
2025-12-06T13:44:57.954121,9,62,105261.0,103857.0,70.0,99.0
2025-12-06T13:44:58.001026,9,63,105261.0,103857.0,70.0,99.0
2025-12-06T13:44:58.034747,9,64,105350.0,103870.0,70.0,99.0
2025-12-06T13:44:58.067341,9,65,105350.0,103870.0,70.0,99.0
2025-12-06T13:44:58.114535,9,66,105350.0,103870.0,70.0,99.0
2025-12-06T13:44:58.161060,9,67,105350.0,103870.0,70.0,99.0
2025-12-06T13:44:58.192689,9,68,105621.0,103970.0,70.0,99.0
2025-12-06T13:44:58.239526,9,69,105621.0,103970.0,70.0,99.0
2025-12-06T13:44:58.270825,9,70,105621.0,103970.0,70.0,99.0
2025-12-06T13:44:58.317580,9,71,105621.0,103970.0,70.0,99.0
2025-12-06T13:44:58.355324,9,72,105876.0,104042.0,70.0,99.0
2025-12-06T13:44:58.398989,9,73,105876.0,104042.0,70.0,99.0
2025-12-06T13:44:58.428572,9,74,105876.0,104042.0,70.0,99.0
2025-12-06T13:44:58.475978,9,75,105876.0,104042.0,70.0,99.0
2025-12-06T13:44:58.507241,9,76,105827.0,104029.0,70.0,99.0
2025-12-06T13:44:58.558706,9,77,105827.0,104029.0,70.0,99.0
2025-12-06T13:44:58.599469,9,78,105827.0,104029.0,70.0,99.0
2025-12-06T13:44:58.631061,9,79,105827.0,104029.0,70.0,99.0
2025-12-06T13:44:58.677932,9,80,105168.0,103749.0,70.0,99.0
2025-12-06T13:44:58.709227,9,81,105168.0,103749.0,70.0,99.0
2025-12-06T13:44:58.757627,9,82,105168.0,103749.0,70.0,99.0
2025-12-06T13:44:58.789444,9,83,105168.0,103749.0,70.0,99.0
2025-12-06T13:44:58.836266,9,84,105203.0,103758.0,70.0,99.0
2025-12-06T13:44:58.867142,9,85,105203.0,103758.0,70.0,99.0
2025-12-06T13:44:58.914332,9,86,105203.0,103758.0,70.0,99.0
2025-12-06T13:44:58.945645,9,87,105203.0,103758.0,70.0,99.0
2025-12-06T13:44:58.992514,9,88,105390.0,103815.0,70.0,99.0
2025-12-06T13:44:59.023761,9,89,105390.0,103815.0,70.0,99.0
2025-12-06T13:44:59.076079,9,90,105390.0,103815.0,70.0,99.0
2025-12-06T13:44:59.115715,9,91,105390.0,103815.0,70.0,99.0
2025-12-06T13:44:59.150344,9,92,105603.0,103897.0,70.0,99.0
2025-12-06T13:44:59.182188,9,93,105603.0,103897.0,70.0,99.0
2025-12-06T13:44:59.233695,9,94,105603.0,103897.0,70.0,99.0
2025-12-06T13:44:59.265032,9,95,105603.0,103897.0,70.0,99.0
2025-12-06T13:44:59.313229,9,96,105840.0,103995.0,70.0,99.0
2025-12-06T13:44:59.344772,9,97,105840.0,103995.0,70.0,99.0
2025-12-06T13:44:59.391576,9,98,105840.0,103995.0,70.0,99.0
2025-12-06T13:44:59.423886,9,99,105840.0,103995.0,70.0,99.0
2025-12-06T13:44:59.472546,9,100,105890.0,104010.0,70.0,99.0
2025-12-06T13:44:59.504408,9,101,105890.0,104010.0,70.0,99.0
2025-12-06T13:44:59.547444,9,102,105890.0,104010.0,70.0,99.0
2025-12-06T13:44:59.593463,9,103,105890.0,104010.0,70.0,99.0
2025-12-06T13:44:59.633988,9,104,105196.0,103744.0,70.0,99.0
2025-12-06T13:44:59.672750,9,105,105196.0,103744.0,70.0,99.0
2025-12-06T13:44:59.704197,9,106,105196.0,103744.0,70.0,99.0
2025-12-06T13:44:59.751014,9,107,105196.0,103744.0,70.0,99.0
2025-12-06T13:44:59.783940,9,108,105247.0,103751.0,70.0,99.0
2025-12-06T13:45:02.002807,10,0,105247.0,103751.0,69.0,98.0
2025-12-06T13:45:02.002807,10,1,105247.0,103751.0,69.0,98.0
2025-12-06T13:45:02.002807,10,2,105247.0,103751.0,69.0,98.0
2025-12-06T13:45:02.005431,10,3,105373.0,103805.0,69.0,98.0
2025-12-06T13:45:02.005431,10,4,105373.0,103805.0,69.0,98.0
2025-12-06T13:45:02.005431,10,5,105373.0,103805.0,69.0,98.0
2025-12-06T13:45:02.005431,10,6,105373.0,103805.0,69.0,98.0
2025-12-06T13:45:02.005431,10,7,105657.0,103907.0,69.0,98.0
2025-12-06T13:45:02.005431,10,8,105657.0,103907.0,69.0,98.0
2025-12-06T13:45:02.005431,10,9,105657.0,103907.0,69.0,98.0
2025-12-06T13:45:02.005431,10,10,105657.0,103907.0,69.0,98.0
2025-12-06T13:45:02.005431,10,11,105950.0,104028.0,69.0,98.0
2025-12-06T13:45:02.005431,10,12,105950.0,104028.0,69.0,98.0
2025-12-06T13:45:02.017054,10,13,105950.0,104028.0,69.0,98.0
2025-12-06T13:45:02.017054,10,14,105950.0,104028.0,69.0,98.0
2025-12-06T13:45:02.017054,10,15,106004.0,104037.0,69.0,98.0
2025-12-06T13:45:02.019948,10,16,106004.0,104037.0,69.0,98.0
2025-12-06T13:45:02.019948,10,17,106004.0,104037.0,69.0,98.0
2025-12-06T13:45:02.021551,10,18,106004.0,104037.0,69.0,98.0
2025-12-06T13:45:02.021551,10,19,106138.0,104113.0,69.0,98.0
2025-12-06T13:45:02.021551,10,20,106138.0,104113.0,69.0,98.0
2025-12-06T13:45:02.021551,10,21,106138.0,104113.0,69.0,98.0
2025-12-06T13:45:02.024397,10,22,106138.0,104113.0,69.0,98.0
2025-12-06T13:45:02.025360,10,23,106251.0,104147.0,69.0,98.0
2025-12-06T13:45:02.026297,10,24,106251.0,104147.0,69.0,98.0
2025-12-06T13:45:02.026582,10,25,106251.0,104147.0,69.0,98.0
2025-12-06T13:45:02.027701,10,26,106251.0,104147.0,69.0,98.0
2025-12-06T13:45:02.027701,10,27,106469.0,104222.0,69.0,98.0
2025-12-06T13:45:02.027701,10,28,106469.0,104222.0,69.0,98.0
2025-12-06T13:45:02.027701,10,29,106469.0,104222.0,69.0,98.0
2025-12-06T13:45:02.027701,10,30,106469.0,104222.0,69.0,98.0
2025-12-06T13:45:02.027701,10,31,106709.0,104307.0,69.0,98.0
2025-12-06T13:45:02.027701,10,32,106709.0,104307.0,69.0,98.0
2025-12-06T13:45:02.027701,10,33,106709.0,104307.0,69.0,98.0
2025-12-06T13:45:02.027701,10,34,106709.0,104307.0,69.0,98.0
2025-12-06T13:45:02.027701,10,35,106952.0,104406.0,69.0,98.0
2025-12-06T13:45:02.027701,10,36,106952.0,104406.0,69.0,98.0
2025-12-06T13:45:02.027701,10,37,106952.0,104406.0,69.0,98.0
2025-12-06T13:45:02.027701,10,38,106952.0,104406.0,69.0,98.0
2025-12-06T13:45:02.035676,10,39,106638.0,104255.0,69.0,98.0
2025-12-06T13:45:02.035676,10,40,106638.0,104255.0,69.0,98.0
2025-12-06T13:45:02.035676,10,41,106638.0,104255.0,69.0,98.0
2025-12-06T13:45:02.035676,10,42,106638.0,104255.0,69.0,98.0
2025-12-06T13:45:02.037995,10,43,106316.0,104129.0,69.0,98.0
2025-12-06T13:45:02.037995,10,44,106316.0,104129.0,69.0,98.0
2025-12-06T13:45:02.037995,10,45,106316.0,104129.0,69.0,98.0
2025-12-06T13:45:02.037995,10,46,106316.0,104129.0,69.0,98.0
2025-12-06T13:45:02.037995,10,47,106394.0,104147.0,69.0,98.0
2025-12-06T13:45:02.037995,10,48,106394.0,104147.0,69.0,98.0
2025-12-06T13:45:02.037995,10,49,106394.0,104147.0,69.0,98.0
2025-12-06T13:45:02.037995,10,50,106394.0,104147.0,69.0,98.0
2025-12-06T13:45:02.037995,10,51,106685.0,104257.0,69.0,98.0
2025-12-06T13:45:02.037995,10,52,106685.0,104257.0,69.0,98.0
2025-12-06T13:45:02.037995,10,53,106685.0,104257.0,69.0,98.0
2025-12-06T13:45:02.037995,10,54,106685.0,104257.0,69.0,98.0
2025-12-06T13:45:02.037995,10,55,107054.0,104400.0,69.0,98.0
2025-12-06T13:45:02.051721,10,56,107054.0,104400.0,69.0,98.0
2025-12-06T13:45:02.100732,10,57,107054.0,104400.0,69.0,98.0
2025-12-06T13:45:02.144069,10,58,107054.0,104400.0,69.0,98.0
2025-12-06T13:45:02.175729,10,59,107352.0,104536.0,69.0,98.0
2025-12-06T13:45:02.222596,10,60,107352.0,104536.0,69.0,98.0
2025-12-06T13:45:02.253837,10,61,107352.0,104536.0,69.0,98.0
2025-12-06T13:45:02.300442,10,62,107352.0,104536.0,69.0,98.0
2025-12-06T13:45:02.339797,10,63,106753.0,104300.0,69.0,98.0
2025-12-06T13:45:02.382288,10,64,106753.0,104300.0,69.0,98.0
2025-12-06T13:45:02.413792,10,65,106753.0,104300.0,69.0,98.0
2025-12-06T13:45:02.461946,10,66,106753.0,104300.0,69.0,98.0
2025-12-06T13:45:02.493197,10,67,106483.0,104177.0,69.0,98.0
2025-12-06T13:45:02.540060,10,68,106483.0,104177.0,69.0,98.0
2025-12-06T13:45:02.572513,10,69,106483.0,104177.0,69.0,98.0
2025-12-06T13:45:02.620126,10,70,106483.0,104177.0,69.0,98.0
2025-12-06T13:45:02.655118,10,71,106494.0,104177.0,69.0,98.0
2025-12-06T13:45:02.702997,10,72,106494.0,104177.0,69.0,98.0
2025-12-06T13:45:02.734627,10,73,106494.0,104177.0,69.0,98.0
2025-12-06T13:45:02.782802,10,74,106494.0,104177.0,69.0,98.0
2025-12-06T13:45:02.814766,10,75,106763.0,104301.0,69.0,98.0
2025-12-06T13:45:02.845661,10,76,106763.0,104301.0,69.0,98.0
2025-12-06T13:45:02.899225,10,77,106763.0,104301.0,69.0,98.0
2025-12-06T13:45:02.932145,10,78,106763.0,104301.0,69.0,98.0
2025-12-06T13:45:02.979174,10,79,107079.0,104401.0,69.0,98.0
2025-12-06T13:45:03.014678,10,80,107079.0,104401.0,69.0,98.0
2025-12-06T13:45:03.046596,10,81,107079.0,104401.0,69.0,98.0
2025-12-06T13:45:03.095533,10,82,107079.0,104401.0,69.0,98.0
2025-12-06T13:45:03.128025,10,83,107238.0,104466.0,69.0,98.0
2025-12-06T13:45:03.171630,10,84,107238.0,104466.0,69.0,98.0
2025-12-06T13:45:03.218652,10,85,107238.0,104466.0,69.0,98.0
2025-12-06T13:45:03.249776,10,86,107238.0,104466.0,69.0,98.0
2025-12-06T13:45:03.298061,10,87,106516.0,104206.0,69.0,98.0
2025-12-06T13:45:03.329365,10,88,106516.0,104206.0,69.0,98.0
2025-12-06T13:45:03.366289,10,89,106516.0,104206.0,69.0,98.0
2025-12-06T13:45:03.418538,10,90,106516.0,104206.0,69.0,98.0
2025-12-06T13:45:03.448507,10,91,106468.0,104156.0,69.0,98.0
2025-12-06T13:45:03.496684,10,92,106468.0,104156.0,69.0,98.0
2025-12-06T13:45:03.527958,10,93,106468.0,104156.0,69.0,98.0
2025-12-06T13:45:03.577424,10,94,106468.0,104156.0,69.0,98.0
2025-12-06T13:45:03.609199,10,95,106649.0,104238.0,69.0,98.0
2025-12-06T13:45:03.651211,10,96,106649.0,104238.0,69.0,98.0
2025-12-06T13:45:03.699095,10,97,106649.0,104238.0,69.0,98.0
2025-12-06T13:45:03.732548,10,98,106649.0,104238.0,69.0,98.0
2025-12-06T13:45:03.764179,10,99,106883.0,104321.0,69.0,98.0
2025-12-06T13:45:03.811045,10,100,106883.0,104321.0,69.0,98.0
2025-12-06T13:45:03.857545,10,101,106883.0,104321.0,69.0,98.0
2025-12-06T13:45:03.889175,10,102,106883.0,104321.0,69.0,98.0
2025-12-06T13:45:03.933079,10,103,107127.0,104425.0,69.0,98.0
2025-12-06T13:45:03.975878,10,104,107127.0,104425.0,69.0,98.0
2025-12-06T13:45:04.007532,10,105,107127.0,104425.0,69.0,98.0
2025-12-06T13:45:05.753972,11,0,107127.0,104425.0,66.0,98.0
2025-12-06T13:45:05.753972,11,1,106361.0,104114.0,66.0,98.0
2025-12-06T13:45:05.753972,11,2,106361.0,104114.0,66.0,98.0
2025-12-06T13:45:05.757339,11,3,106361.0,104114.0,66.0,98.0
2025-12-06T13:45:05.757339,11,4,106361.0,104114.0,66.0,98.0
2025-12-06T13:45:05.757339,11,5,106256.0,104075.0,66.0,98.0
2025-12-06T13:45:05.757339,11,6,106256.0,104075.0,66.0,98.0
2025-12-06T13:45:05.757339,11,7,106256.0,104075.0,66.0,98.0
2025-12-06T13:45:05.757339,11,8,106256.0,104075.0,66.0,98.0
2025-12-06T13:45:05.757339,11,9,105360.0,103726.0,66.0,98.0
2025-12-06T13:45:05.757339,11,10,105360.0,103726.0,66.0,98.0
2025-12-06T13:45:05.757339,11,11,105360.0,103726.0,66.0,98.0
2025-12-06T13:45:05.757339,11,12,105360.0,103726.0,66.0,98.0
2025-12-06T13:45:05.765082,11,13,105508.0,103761.0,66.0,98.0
2025-12-06T13:45:05.766041,11,14,105508.0,103761.0,66.0,98.0
2025-12-06T13:45:05.766041,11,15,105508.0,103761.0,66.0,98.0
2025-12-06T13:45:05.766041,11,16,105508.0,103761.0,66.0,98.0
2025-12-06T13:45:05.768615,11,17,105903.0,103929.0,66.0,98.0
2025-12-06T13:45:05.769330,11,18,105903.0,103929.0,66.0,98.0
2025-12-06T13:45:05.769330,11,19,105903.0,103929.0,66.0,98.0
2025-12-06T13:45:05.769330,11,20,105903.0,103929.0,66.0,98.0
2025-12-06T13:45:05.769330,11,21,105022.0,103553.0,66.0,98.0
2025-12-06T13:45:05.772031,11,22,105022.0,103553.0,66.0,98.0
2025-12-06T13:45:05.772448,11,23,105022.0,103553.0,66.0,98.0
2025-12-06T13:45:05.774025,11,24,105022.0,103553.0,66.0,98.0
2025-12-06T13:45:05.774025,11,25,105027.0,103561.0,66.0,98.0
2025-12-06T13:45:05.774025,11,26,105027.0,103561.0,66.0,98.0
2025-12-06T13:45:05.774025,11,27,105027.0,103561.0,66.0,98.0
2025-12-06T13:45:05.774025,11,28,105027.0,103561.0,66.0,98.0
2025-12-06T13:45:05.774025,11,29,105231.0,103624.0,66.0,98.0
2025-12-06T13:45:05.774025,11,30,105231.0,103624.0,66.0,98.0
2025-12-06T13:45:05.774025,11,31,105231.0,103624.0,66.0,98.0
2025-12-06T13:45:05.774025,11,32,105231.0,103624.0,66.0,98.0
2025-12-06T13:45:05.782062,11,33,105501.0,103723.0,66.0,98.0
2025-12-06T13:45:05.783839,11,34,105501.0,103723.0,66.0,98.0
2025-12-06T13:45:05.784373,11,35,105501.0,103723.0,66.0,98.0
2025-12-06T13:45:05.784373,11,36,105501.0,103723.0,66.0,98.0
2025-12-06T13:45:05.784373,11,37,105593.0,103774.0,66.0,98.0
2025-12-06T13:45:05.784373,11,38,105593.0,103774.0,66.0,98.0
2025-12-06T13:45:05.784373,11,39,105593.0,103774.0,66.0,98.0
2025-12-06T13:45:05.784373,11,40,105593.0,103774.0,66.0,98.0
2025-12-06T13:45:05.784373,11,41,104699.0,103390.0,66.0,98.0
2025-12-06T13:45:05.784373,11,42,104699.0,103390.0,66.0,98.0
2025-12-06T13:45:05.784373,11,43,104699.0,103390.0,66.0,98.0
2025-12-06T13:45:05.802141,11,44,104699.0,103390.0,66.0,98.0
2025-12-06T13:45:05.849391,11,45,104764.0,103408.0,66.0,98.0
2025-12-06T13:45:05.890203,11,46,104764.0,103408.0,66.0,98.0
2025-12-06T13:45:05.921962,11,47,104764.0,103408.0,66.0,98.0
2025-12-06T13:45:05.965541,11,48,104764.0,103408.0,66.0,98.0
2025-12-06T13:45:05.998068,11,49,105060.0,103536.0,66.0,98.0
2025-12-06T13:45:06.045620,11,50,105060.0,103536.0,66.0,98.0
2025-12-06T13:45:06.077300,11,51,105060.0,103536.0,66.0,98.0
2025-12-06T13:45:06.124153,11,52,105060.0,103536.0,66.0,98.0
2025-12-06T13:45:06.157577,11,53,105333.0,103635.0,66.0,98.0
2025-12-06T13:45:06.210508,11,54,105333.0,103635.0,66.0,98.0
2025-12-06T13:45:06.239225,11,55,105333.0,103635.0,66.0,98.0
2025-12-06T13:45:06.287479,11,56,105333.0,103635.0,66.0,98.0
2025-12-06T13:45:06.319791,11,57,105506.0,103723.0,66.0,98.0
2025-12-06T13:45:06.365512,11,58,105506.0,103723.0,66.0,98.0
2025-12-06T13:45:06.400153,11,59,105506.0,103723.0,66.0,98.0
2025-12-06T13:45:06.439557,11,60,105506.0,103723.0,66.0,98.0
2025-12-06T13:45:06.480155,11,61,104781.0,103411.0,66.0,98.0
2025-12-06T13:45:06.519730,11,62,104781.0,103411.0,66.0,98.0
2025-12-06T13:45:06.556180,11,63,104781.0,103411.0,66.0,98.0
2025-12-06T13:45:06.603022,11,64,104781.0,103411.0,66.0,98.0
2025-12-06T13:45:06.634913,11,65,104943.0,103463.0,66.0,98.0
2025-12-06T13:45:06.681887,11,66,104943.0,103463.0,66.0,98.0
2025-12-06T13:45:06.713236,11,67,104943.0,103463.0,66.0,98.0
2025-12-06T13:45:06.766540,11,68,104943.0,103463.0,66.0,98.0
2025-12-06T13:45:06.798775,11,69,105189.0,103587.0,66.0,98.0
2025-12-06T13:45:06.832830,11,70,105189.0,103587.0,66.0,98.0
2025-12-06T13:45:06.879847,11,71,105189.0,103587.0,66.0,98.0
2025-12-06T13:45:06.926762,11,72,105189.0,103587.0,66.0,98.0
2025-12-06T13:45:06.958925,11,73,105496.0,103708.0,66.0,98.0
2025-12-06T13:45:07.001252,11,74,105496.0,103708.0,66.0,98.0
2025-12-06T13:45:07.045078,11,75,105496.0,103708.0,66.0,98.0
2025-12-06T13:45:07.080574,11,76,105496.0,103708.0,66.0,98.0
2025-12-06T13:45:07.111882,11,77,105600.0,103747.0,66.0,98.0
2025-12-06T13:45:07.159587,11,78,105600.0,103747.0,66.0,98.0
2025-12-06T13:45:07.190839,11,79,105600.0,103747.0,66.0,98.0
2025-12-06T13:45:07.237725,11,80,105600.0,103747.0,66.0,98.0
2025-12-06T13:45:07.279483,11,81,104894.0,103461.0,66.0,98.0
2025-12-06T13:45:07.311070,11,82,104894.0,103461.0,66.0,98.0
2025-12-06T13:45:07.359698,11,83,104894.0,103461.0,66.0,98.0
2025-12-06T13:45:07.390919,11,84,104894.0,103461.0,66.0,98.0
2025-12-06T13:45:07.437777,11,85,104987.0,103497.0,66.0,98.0
2025-12-06T13:45:07.469010,11,86,104987.0,103497.0,66.0,98.0
2025-12-06T13:45:07.516754,11,87,104987.0,103497.0,66.0,98.0
2025-12-06T13:45:07.565115,11,88,104987.0,103497.0,66.0,98.0
2025-12-06T13:45:07.600009,11,89,105303.0,103632.0,66.0,98.0
2025-12-06T13:45:07.631238,11,90,105303.0,103632.0,66.0,98.0
2025-12-06T13:45:07.679255,11,91,105303.0,103632.0,66.0,98.0
2025-12-06T13:45:07.710518,11,92,105303.0,103632.0,66.0,98.0
2025-12-06T13:45:07.762152,11,93,105664.0,103764.0,66.0,98.0
2025-12-06T13:45:09.592199,12,0,105664.0,103764.0,68.0,99.0
2025-12-06T13:45:09.592199,12,1,105664.0,103764.0,68.0,99.0
2025-12-06T13:45:09.592199,12,2,105664.0,103764.0,68.0,99.0
2025-12-06T13:45:09.594516,12,3,105972.0,103885.0,68.0,99.0
2025-12-06T13:45:09.594516,12,4,105972.0,103885.0,68.0,99.0
2025-12-06T13:45:09.594516,12,5,105972.0,103885.0,68.0,99.0
2025-12-06T13:45:09.597404,12,6,105972.0,103885.0,68.0,99.0
2025-12-06T13:45:09.597404,12,7,105110.0,103512.0,68.0,99.0
2025-12-06T13:45:09.597404,12,8,105110.0,103512.0,68.0,99.0
2025-12-06T13:45:09.597404,12,9,105110.0,103512.0,68.0,99.0
2025-12-06T13:45:09.597404,12,10,105110.0,103512.0,68.0,99.0
2025-12-06T13:45:09.597404,12,11,105026.0,103489.0,68.0,99.0
2025-12-06T13:45:09.597404,12,12,105026.0,103489.0,68.0,99.0
2025-12-06T13:45:09.605620,12,13,105026.0,103489.0,68.0,99.0
2025-12-06T13:45:09.606724,12,14,105026.0,103489.0,68.0,99.0
2025-12-06T13:45:09.606724,12,15,105142.0,103555.0,68.0,99.0
2025-12-06T13:45:09.606724,12,16,105142.0,103555.0,68.0,99.0
2025-12-06T13:45:09.609234,12,17,105142.0,103555.0,68.0,99.0
2025-12-06T13:45:09.610023,12,18,105142.0,103555.0,68.0,99.0
2025-12-06T13:45:09.610023,12,19,105411.0,103640.0,68.0,99.0
2025-12-06T13:45:09.610023,12,20,105411.0,103640.0,68.0,99.0
2025-12-06T13:45:09.610023,12,21,105411.0,103640.0,68.0,99.0
2025-12-06T13:45:09.610023,12,22,105411.0,103640.0,68.0,99.0
2025-12-06T13:45:09.612573,12,23,105700.0,103759.0,68.0,99.0
2025-12-06T13:45:09.612990,12,24,105700.0,103759.0,68.0,99.0
2025-12-06T13:45:09.614035,12,25,105700.0,103759.0,68.0,99.0
2025-12-06T13:45:09.614957,12,26,105700.0,103759.0,68.0,99.0
2025-12-06T13:45:09.614957,12,27,106092.0,103922.0,68.0,99.0
2025-12-06T13:45:09.616772,12,28,106092.0,103922.0,68.0,99.0
2025-12-06T13:45:09.617240,12,29,106092.0,103922.0,68.0,99.0
2025-12-06T13:45:09.617240,12,30,106092.0,103922.0,68.0,99.0
2025-12-06T13:45:09.617240,12,31,105355.0,103595.0,68.0,99.0
2025-12-06T13:45:09.617240,12,32,105355.0,103595.0,68.0,99.0
2025-12-06T13:45:09.617240,12,33,105355.0,103595.0,68.0,99.0
2025-12-06T13:45:09.617240,12,34,105355.0,103595.0,68.0,99.0
2025-12-06T13:45:09.617240,12,35,105186.0,103532.0,68.0,99.0
2025-12-06T13:45:09.617240,12,36,105186.0,103532.0,68.0,99.0
2025-12-06T13:45:09.617240,12,37,105186.0,103532.0,68.0,99.0
2025-12-06T13:45:09.617240,12,38,105186.0,103532.0,68.0,99.0
2025-12-06T13:45:09.617240,12,39,105299.0,103585.0,68.0,99.0
2025-12-06T13:45:09.617240,12,40,105299.0,103585.0,68.0,99.0
2025-12-06T13:45:09.617240,12,41,105299.0,103585.0,68.0,99.0
2025-12-06T13:45:09.617240,12,42,105299.0,103585.0,68.0,99.0
2025-12-06T13:45:09.617240,12,43,105532.0,103687.0,68.0,99.0
2025-12-06T13:45:09.617240,12,44,105532.0,103687.0,68.0,99.0
2025-12-06T13:45:09.617240,12,45,105532.0,103687.0,68.0,99.0
2025-12-06T13:45:09.634179,12,46,105532.0,103687.0,68.0,99.0
2025-12-06T13:45:09.673076,12,47,105829.0,103783.0,68.0,99.0
2025-12-06T13:45:09.713413,12,48,105829.0,103783.0,68.0,99.0
2025-12-06T13:45:09.744691,12,49,105829.0,103783.0,68.0,99.0
2025-12-06T13:45:09.792600,12,50,105829.0,103783.0,68.0,99.0
2025-12-06T13:45:09.836145,12,51,105901.0,103808.0,68.0,99.0
2025-12-06T13:45:09.868017,12,52,105901.0,103808.0,68.0,99.0
2025-12-06T13:45:09.914522,12,53,105901.0,103808.0,68.0,99.0
2025-12-06T13:45:09.944016,12,54,105901.0,103808.0,68.0,99.0
2025-12-06T13:45:09.985737,12,55,105262.0,103517.0,68.0,99.0
2025-12-06T13:45:10.035948,12,56,105262.0,103517.0,68.0,99.0
2025-12-06T13:45:10.065064,12,57,105262.0,103517.0,68.0,99.0
2025-12-06T13:45:10.112311,12,58,105262.0,103517.0,68.0,99.0
2025-12-06T13:45:10.144576,12,59,105309.0,103530.0,68.0,99.0
2025-12-06T13:45:10.193046,12,60,105309.0,103530.0,68.0,99.0
2025-12-06T13:45:10.224646,12,61,105309.0,103530.0,68.0,99.0
2025-12-06T13:45:10.277815,12,62,105309.0,103530.0,68.0,99.0
2025-12-06T13:45:10.309313,12,63,105469.0,103605.0,68.0,99.0
2025-12-06T13:45:10.340143,12,64,105469.0,103605.0,68.0,99.0
2025-12-06T13:45:10.388174,12,65,105469.0,103605.0,68.0,99.0
2025-12-06T13:45:10.419808,12,66,105469.0,103605.0,68.0,99.0
2025-12-06T13:45:10.466675,12,67,105673.0,103666.0,68.0,99.0
2025-12-06T13:45:10.497566,12,68,105673.0,103666.0,68.0,99.0
2025-12-06T13:45:10.544822,12,69,105673.0,103666.0,68.0,99.0
2025-12-06T13:45:10.581309,12,70,105673.0,103666.0,68.0,99.0
2025-12-06T13:45:10.618816,12,71,105935.0,103783.0,68.0,99.0
2025-12-06T13:45:10.667956,12,72,105935.0,103783.0,68.0,99.0
2025-12-06T13:45:10.699236,12,73,105935.0,103783.0,68.0,99.0
2025-12-06T13:45:10.746120,12,74,105935.0,103783.0,68.0,99.0
2025-12-06T13:45:10.777365,12,75,105334.0,103498.0,68.0,99.0
2025-12-06T13:45:10.820124,12,76,105334.0,103498.0,68.0,99.0
2025-12-06T13:45:10.860535,12,77,105334.0,103498.0,68.0,99.0
2025-12-06T13:45:10.910324,12,78,105334.0,103498.0,68.0,99.0
2025-12-06T13:45:10.938213,12,79,105100.0,103397.0,68.0,99.0
2025-12-06T13:45:10.985227,12,80,105100.0,103397.0,68.0,99.0
2025-12-06T13:45:11.016838,12,81,105100.0,103397.0,68.0,99.0
2025-12-06T13:45:11.064415,12,82,105100.0,103397.0,68.0,99.0
2025-12-06T13:45:11.109513,12,83,105125.0,103421.0,68.0,99.0
2025-12-06T13:45:11.146452,12,84,105125.0,103421.0,68.0,99.0
2025-12-06T13:45:11.178528,12,85,105125.0,103421.0,68.0,99.0
2025-12-06T13:45:11.226608,12,86,105125.0,103421.0,68.0,99.0
2025-12-06T13:45:11.257847,12,87,105336.0,103481.0,68.0,99.0
2025-12-06T13:45:11.305450,12,88,105336.0,103481.0,68.0,99.0
2025-12-06T13:45:11.349953,12,89,105336.0,103481.0,68.0,99.0
2025-12-06T13:45:11.373893,12,90,105336.0,103481.0,68.0,99.0
2025-12-06T13:45:11.420778,12,91,105522.0,103566.0,68.0,99.0
2025-12-06T13:45:11.468350,12,92,105522.0,103566.0,68.0,99.0
2025-12-06T13:45:11.499974,12,93,105522.0,103566.0,68.0,99.0
2025-12-06T13:45:11.546850,12,94,105522.0,103566.0,68.0,99.0
2025-12-06T13:45:11.578072,12,95,105564.0,103578.0,68.0,99.0
2025-12-06T13:45:11.623550,12,96,105564.0,103578.0,68.0,99.0
2025-12-06T13:45:13.178497,13,0,105564.0,103578.0,72.0,98.0
2025-12-06T13:45:13.180114,13,1,105564.0,103578.0,72.0,98.0
2025-12-06T13:45:13.180114,13,2,104919.0,103293.0,72.0,98.0
2025-12-06T13:45:13.180114,13,3,104919.0,103293.0,72.0,98.0
2025-12-06T13:45:13.186706,13,4,104919.0,103293.0,72.0,98.0
2025-12-06T13:45:13.186706,13,5,104919.0,103293.0,72.0,98.0
2025-12-06T13:45:13.188759,13,6,104970.0,103327.0,72.0,98.0
2025-12-06T13:45:13.188759,13,7,104970.0,103327.0,72.0,98.0
2025-12-06T13:45:13.188759,13,8,104970.0,103327.0,72.0,98.0
2025-12-06T13:45:13.188759,13,9,104970.0,103327.0,72.0,98.0
2025-12-06T13:45:13.188759,13,10,105183.0,103402.0,72.0,98.0
2025-12-06T13:45:13.188759,13,11,105183.0,103402.0,72.0,98.0
2025-12-06T13:45:13.188759,13,12,105183.0,103402.0,72.0,98.0
2025-12-06T13:45:13.188759,13,13,105183.0,103402.0,72.0,98.0
2025-12-06T13:45:13.196738,13,14,105442.0,103512.0,72.0,98.0
2025-12-06T13:45:13.198420,13,15,105442.0,103512.0,72.0,98.0
2025-12-06T13:45:13.198420,13,16,105442.0,103512.0,72.0,98.0
2025-12-06T13:45:13.200364,13,17,105442.0,103512.0,72.0,98.0
2025-12-06T13:45:13.200364,13,18,105721.0,103628.0,72.0,98.0
2025-12-06T13:45:13.200364,13,19,105721.0,103628.0,72.0,98.0
2025-12-06T13:45:13.200364,13,20,105721.0,103628.0,72.0,98.0
2025-12-06T13:45:13.206235,13,21,105721.0,103628.0,72.0,98.0
2025-12-06T13:45:13.207414,13,22,105006.0,103325.0,72.0,98.0
2025-12-06T13:45:13.207414,13,23,105006.0,103325.0,72.0,98.0
2025-12-06T13:45:13.209565,13,24,105006.0,103325.0,72.0,98.0
2025-12-06T13:45:13.210706,13,25,105006.0,103325.0,72.0,98.0
2025-12-06T13:45:13.210706,13,26,104986.0,103331.0,72.0,98.0
2025-12-06T13:45:13.210706,13,27,104986.0,103331.0,72.0,98.0
2025-12-06T13:45:13.210706,13,28,104986.0,103331.0,72.0,98.0
2025-12-06T13:45:13.210706,13,29,104986.0,103331.0,72.0,98.0
2025-12-06T13:45:13.210706,13,30,105173.0,103399.0,72.0,98.0
2025-12-06T13:45:13.210706,13,31,105173.0,103399.0,72.0,98.0
2025-12-06T13:45:13.216233,13,32,105173.0,103399.0,72.0,98.0
2025-12-06T13:45:13.216233,13,33,105173.0,103399.0,72.0,98.0
2025-12-06T13:45:13.216233,13,34,105477.0,103536.0,72.0,98.0
2025-12-06T13:45:13.216233,13,35,105477.0,103536.0,72.0,98.0
2025-12-06T13:45:13.216233,13,36,105477.0,103536.0,72.0,98.0
2025-12-06T13:45:13.216233,13,37,105477.0,103536.0,72.0,98.0
2025-12-06T13:45:13.216233,13,38,105804.0,103684.0,72.0,98.0
2025-12-06T13:45:13.216233,13,39,105804.0,103684.0,72.0,98.0
2025-12-06T13:45:13.257540,13,40,105804.0,103684.0,72.0,98.0
2025-12-06T13:45:13.296302,13,41,105804.0,103684.0,72.0,98.0
2025-12-06T13:45:13.332549,13,42,105103.0,103365.0,72.0,98.0
2025-12-06T13:45:13.382033,13,43,105103.0,103365.0,72.0,98.0
2025-12-06T13:45:13.413682,13,44,105103.0,103365.0,72.0,98.0
2025-12-06T13:45:13.446186,13,45,105103.0,103365.0,72.0,98.0
2025-12-06T13:45:13.493446,13,46,105081.0,103355.0,72.0,98.0
2025-12-06T13:45:13.541427,13,47,105081.0,103355.0,72.0,98.0
2025-12-06T13:45:13.572988,13,48,105081.0,103355.0,72.0,98.0
2025-12-06T13:45:13.619837,13,49,105081.0,103355.0,72.0,98.0
2025-12-06T13:45:13.657284,13,50,105226.0,103430.0,72.0,98.0
2025-12-06T13:45:13.689407,13,51,105226.0,103430.0,72.0,98.0
2025-12-06T13:45:13.736577,13,52,105226.0,103430.0,72.0,98.0
2025-12-06T13:45:13.773065,13,53,105226.0,103430.0,72.0,98.0
2025-12-06T13:45:13.811680,13,54,105536.0,103556.0,72.0,98.0
2025-12-06T13:45:13.843192,13,55,105536.0,103556.0,72.0,98.0
2025-12-06T13:45:13.891229,13,56,105536.0,103556.0,72.0,98.0
2025-12-06T13:45:13.929894,13,57,105536.0,103556.0,72.0,98.0
2025-12-06T13:45:13.976862,13,58,105851.0,103707.0,72.0,98.0
2025-12-06T13:45:14.018096,13,59,105851.0,103707.0,72.0,98.0
2025-12-06T13:45:14.049906,13,60,105851.0,103707.0,72.0,98.0
2025-12-06T13:45:14.096793,13,61,105851.0,103707.0,72.0,98.0
2025-12-06T13:45:14.129287,13,62,105084.0,103368.0,72.0,98.0
2025-12-06T13:45:14.176268,13,63,105084.0,103368.0,72.0,98.0
2025-12-06T13:45:14.207560,13,64,105084.0,103368.0,72.0,98.0
2025-12-06T13:45:14.254362,13,65,105084.0,103368.0,72.0,98.0
2025-12-06T13:45:14.290812,13,66,105086.0,103361.0,72.0,98.0
2025-12-06T13:45:14.322082,13,67,105086.0,103361.0,72.0,98.0
2025-12-06T13:45:14.371235,13,68,105086.0,103361.0,72.0,98.0
2025-12-06T13:45:14.402443,13,69,105086.0,103361.0,72.0,98.0
2025-12-06T13:45:14.448272,13,70,105283.0,103445.0,72.0,98.0
2025-12-06T13:45:14.496943,13,71,105283.0,103445.0,72.0,98.0
2025-12-06T13:45:14.528582,13,72,105283.0,103445.0,72.0,98.0
2025-12-06T13:45:14.575503,13,73,105283.0,103445.0,72.0,98.0
2025-12-06T13:45:14.606749,13,74,105594.0,103593.0,72.0,98.0
2025-12-06T13:45:14.651614,13,75,105594.0,103593.0,72.0,98.0
2025-12-06T13:45:14.684520,13,76,105594.0,103593.0,72.0,98.0
2025-12-06T13:45:14.733408,13,77,105594.0,103593.0,72.0,98.0
2025-12-06T13:45:14.765133,13,78,105476.0,103535.0,72.0,98.0
2025-12-06T13:45:14.812221,13,79,105476.0,103535.0,72.0,98.0
2025-12-06T13:45:14.854039,13,80,105476.0,103535.0,72.0,98.0
2025-12-06T13:45:14.890255,13,81,105476.0,103535.0,72.0,98.0
2025-12-06T13:45:14.931136,13,82,104902.0,103289.0,72.0,98.0
2025-12-06T13:45:14.974705,13,83,104902.0,103289.0,72.0,98.0
2025-12-06T13:45:15.014023,13,84,104902.0,103289.0,72.0,98.0
2025-12-06T13:45:15.053859,13,85,104902.0,103289.0,72.0,98.0
2025-12-06T13:45:15.093832,13,86,105098.0,103369.0,72.0,98.0
2025-12-06T13:45:15.131781,13,87,105098.0,103369.0,72.0,98.0
2025-12-06T13:45:15.172914,13,88,105098.0,103369.0,72.0,98.0
2025-12-06T13:45:15.206495,13,89,105098.0,103369.0,72.0,98.0
2025-12-06T13:45:18.041314,14,0,105459.0,103545.0,74.0,97.0
2025-12-06T13:45:18.041314,14,1,105459.0,103545.0,74.0,97.0
2025-12-06T13:45:18.041314,14,2,105459.0,103545.0,74.0,97.0
2025-12-06T13:45:18.041314,14,3,105459.0,103545.0,74.0,97.0
2025-12-06T13:45:18.045196,14,4,105303.0,103461.0,74.0,97.0
2025-12-06T13:45:18.045196,14,5,105303.0,103461.0,74.0,97.0
2025-12-06T13:45:18.045196,14,6,105303.0,103461.0,74.0,97.0
2025-12-06T13:45:18.045196,14,7,105303.0,103461.0,74.0,97.0
2025-12-06T13:45:18.045196,14,8,104900.0,103280.0,74.0,97.0
2025-12-06T13:45:18.045196,14,9,104900.0,103280.0,74.0,97.0
2025-12-06T13:45:18.045196,14,10,104900.0,103280.0,74.0,97.0
2025-12-06T13:45:18.045196,14,11,104900.0,103280.0,74.0,97.0
2025-12-06T13:45:18.045196,14,12,105119.0,103379.0,74.0,97.0
2025-12-06T13:45:18.045196,14,13,105119.0,103379.0,74.0,97.0
2025-12-06T13:45:18.045196,14,14,105119.0,103379.0,74.0,97.0
2025-12-06T13:45:18.045196,14,15,105119.0,103379.0,74.0,97.0
2025-12-06T13:45:18.045196,14,16,105486.0,103527.0,74.0,97.0
2025-12-06T13:45:18.045196,14,17,105486.0,103527.0,74.0,97.0
2025-12-06T13:45:18.045196,14,18,105486.0,103527.0,74.0,97.0
2025-12-06T13:45:18.045196,14,19,105486.0,103527.0,74.0,97.0
2025-12-06T13:45:18.045196,14,20,105814.0,103683.0,74.0,97.0
2025-12-06T13:45:18.045196,14,21,105814.0,103683.0,74.0,97.0
2025-12-06T13:45:18.045196,14,22,105814.0,103683.0,74.0,97.0
2025-12-06T13:45:18.045196,14,23,105814.0,103683.0,74.0,97.0
2025-12-06T13:45:18.045196,14,24,104907.0,103271.0,74.0,97.0
2025-12-06T13:45:18.045196,14,25,104907.0,103271.0,74.0,97.0
2025-12-06T13:45:18.045196,14,26,104907.0,103271.0,74.0,97.0
2025-12-06T13:45:18.045196,14,27,104907.0,103271.0,74.0,97.0
2025-12-06T13:45:18.045196,14,28,104988.0,103316.0,74.0,97.0
2025-12-06T13:45:18.045196,14,29,104988.0,103316.0,74.0,97.0
2025-12-06T13:45:18.045196,14,30,104988.0,103316.0,74.0,97.0
2025-12-06T13:45:18.045196,14,31,104988.0,103316.0,74.0,97.0
2025-12-06T13:45:18.045196,14,32,105276.0,103428.0,74.0,97.0
2025-12-06T13:45:18.045196,14,33,105276.0,103428.0,74.0,97.0
2025-12-06T13:45:18.045196,14,34,105276.0,103428.0,74.0,97.0
2025-12-06T13:45:18.045196,14,35,105276.0,103428.0,74.0,97.0
2025-12-06T13:45:18.045196,14,36,105585.0,103582.0,74.0,97.0
2025-12-06T13:45:18.045196,14,37,105585.0,103582.0,74.0,97.0
2025-12-06T13:45:18.045196,14,38,105585.0,103582.0,74.0,97.0
2025-12-06T13:45:18.045196,14,39,105585.0,103582.0,74.0,97.0
2025-12-06T13:45:18.045196,14,40,105695.0,103616.0,74.0,97.0
2025-12-06T13:45:18.045196,14,41,105695.0,103616.0,74.0,97.0
2025-12-06T13:45:18.060865,14,42,105695.0,103616.0,74.0,97.0
2025-12-06T13:45:18.060865,14,43,105695.0,103616.0,74.0,97.0
2025-12-06T13:45:18.062131,14,44,104896.0,103263.0,74.0,97.0
2025-12-06T13:45:18.062131,14,45,104896.0,103263.0,74.0,97.0
2025-12-06T13:45:18.063801,14,46,104896.0,103263.0,74.0,97.0
2025-12-06T13:45:18.063801,14,47,104896.0,103263.0,74.0,97.0
2025-12-06T13:45:18.064542,14,48,104821.0,103237.0,74.0,97.0
2025-12-06T13:45:18.064542,14,49,104821.0,103237.0,74.0,97.0
2025-12-06T13:45:18.064542,14,50,104821.0,103237.0,74.0,97.0
2025-12-06T13:45:18.064542,14,51,104821.0,103237.0,74.0,97.0
2025-12-06T13:45:18.064542,14,52,105154.0,103377.0,74.0,97.0
2025-12-06T13:45:18.067099,14,53,105154.0,103377.0,74.0,97.0
2025-12-06T13:45:18.067805,14,54,105154.0,103377.0,74.0,97.0
2025-12-06T13:45:18.067805,14,55,105154.0,103377.0,74.0,97.0
2025-12-06T13:45:18.068859,14,56,105597.0,103563.0,74.0,97.0
2025-12-06T13:45:18.068859,14,57,105597.0,103563.0,74.0,97.0
2025-12-06T13:45:18.070877,14,58,105597.0,103563.0,74.0,97.0
2025-12-06T13:45:18.070877,14,59,105597.0,103563.0,74.0,97.0
2025-12-06T13:45:18.070877,14,60,106044.0,103762.0,74.0,97.0
2025-12-06T13:45:18.070877,14,61,106044.0,103762.0,74.0,97.0
2025-12-06T13:45:18.070877,14,62,106044.0,103762.0,74.0,97.0
2025-12-06T13:45:18.070877,14,63,106044.0,103762.0,74.0,97.0
2025-12-06T13:45:18.070877,14,64,106530.0,103982.0,74.0,97.0
2025-12-06T13:45:18.070877,14,65,106530.0,103982.0,74.0,97.0
2025-12-06T13:45:18.070877,14,66,106530.0,103982.0,74.0,97.0
2025-12-06T13:45:18.070877,14,67,106530.0,103982.0,74.0,97.0
2025-12-06T13:45:18.070877,14,68,105626.0,103571.0,74.0,97.0
2025-12-06T13:45:18.070877,14,69,105626.0,103571.0,74.0,97.0
2025-12-06T13:45:18.070877,14,70,105626.0,103571.0,74.0,97.0
2025-12-06T13:45:18.081933,14,71,105626.0,103571.0,74.0,97.0
2025-12-06T13:45:18.121868,14,72,105525.0,103524.0,74.0,97.0
2025-12-06T13:45:18.155633,14,73,105525.0,103524.0,74.0,97.0
2025-12-06T13:45:18.196118,14,74,105525.0,103524.0,74.0,97.0
2025-12-06T13:45:18.229420,14,75,105525.0,103524.0,74.0,97.0
2025-12-06T13:45:18.277838,14,76,105706.0,103588.0,74.0,97.0
2025-12-06T13:45:18.309191,14,77,105706.0,103588.0,74.0,97.0
2025-12-06T13:45:18.361163,14,78,105706.0,103588.0,74.0,97.0
2025-12-06T13:45:18.400866,14,79,105706.0,103588.0,74.0,97.0
2025-12-06T13:45:18.428787,14,80,106039.0,103725.0,74.0,97.0
2025-12-06T13:45:18.476374,14,81,106039.0,103725.0,74.0,97.0
2025-12-06T13:45:18.518457,14,82,106039.0,103725.0,74.0,97.0
2025-12-06T13:45:18.556401,14,83,106039.0,103725.0,74.0,97.0
2025-12-06T13:45:18.587654,14,84,106386.0,103890.0,74.0,97.0
2025-12-06T13:45:18.634521,14,85,106386.0,103890.0,74.0,97.0
2025-12-06T13:45:18.666209,14,86,106386.0,103890.0,74.0,97.0
2025-12-06T13:45:18.721130,14,87,106386.0,103890.0,74.0,97.0
2025-12-06T13:45:18.755964,14,88,106780.0,104073.0,74.0,97.0
2025-12-06T13:45:18.788242,14,89,106780.0,104073.0,74.0,97.0
2025-12-06T13:45:18.835152,14,90,106780.0,104073.0,74.0,97.0
2025-12-06T13:45:18.878750,14,91,106780.0,104073.0,74.0,97.0
2025-12-06T13:45:18.910131,14,92,105944.0,103658.0,74.0,97.0
2025-12-06T13:45:18.945686,14,93,105944.0,103658.0,74.0,97.0
2025-12-06T13:45:18.994020,14,94,105944.0,103658.0,74.0,97.0
2025-12-06T13:45:19.036673,14,95,105944.0,103658.0,74.0,97.0
2025-12-06T13:45:19.068313,14,96,105873.0,103616.0,74.0,97.0
2025-12-06T13:45:19.115796,14,97,105873.0,103616.0,74.0,97.0
2025-12-06T13:45:19.146760,14,98,105873.0,103616.0,74.0,97.0
2025-12-06T13:45:19.195742,14,99,105873.0,103616.0,74.0,97.0
2025-12-06T13:45:19.228827,14,100,106018.0,103686.0,74.0,97.0
2025-12-06T13:45:19.275899,14,101,106018.0,103686.0,74.0,97.0
2025-12-06T13:45:19.307031,14,102,106018.0,103686.0,74.0,97.0
2025-12-06T13:45:19.353892,14,103,106018.0,103686.0,74.0,97.0
2025-12-06T13:45:19.385931,14,104,106314.0,103810.0,74.0,97.0
2025-12-06T13:45:19.433192,14,105,106314.0,103810.0,74.0,97.0
2025-12-06T13:45:19.478863,14,106,106314.0,103810.0,74.0,97.0
2025-12-06T13:45:19.512242,14,107,106314.0,103810.0,74.0,97.0
2025-12-06T13:45:19.548220,14,108,106625.0,103937.0,74.0,97.0
2025-12-06T13:45:19.595444,14,109,106625.0,103937.0,74.0,97.0
2025-12-06T13:45:19.626729,14,110,106625.0,103937.0,74.0,97.0
2025-12-06T13:45:19.673599,14,111,106625.0,103937.0,74.0,97.0
2025-12-06T13:45:19.705986,14,112,106876.0,104061.0,74.0,97.0
2025-12-06T13:45:19.745216,14,113,106876.0,104061.0,74.0,97.0
2025-12-06T13:45:19.792120,14,114,106876.0,104061.0,74.0,97.0
2025-12-06T13:45:19.823357,14,115,106876.0,104061.0,74.0,97.0
2025-12-06T13:45:19.870362,14,116,105999.0,103612.0,74.0,97.0
2025-12-06T13:45:19.917556,14,117,105999.0,103612.0,74.0,97.0
2025-12-06T13:45:19.950635,14,118,105999.0,103612.0,74.0,97.0
2025-12-06T13:45:19.996279,14,119,105999.0,103612.0,74.0,97.0
2025-12-06T13:45:20.028667,14,120,105931.0,103577.0,74.0,97.0
2025-12-06T13:45:20.075156,14,121,105931.0,103577.0,74.0,97.0
2025-12-06T13:45:21.517590,15,0,105931.0,103577.0,76.0,97.0
2025-12-06T13:45:21.517590,15,1,105931.0,103577.0,76.0,97.0
2025-12-06T13:45:21.517590,15,2,106107.0,103652.0,76.0,97.0
2025-12-06T13:45:21.520340,15,3,106107.0,103652.0,76.0,97.0
2025-12-06T13:45:21.520340,15,4,106107.0,103652.0,76.0,97.0
2025-12-06T13:45:21.520340,15,5,106107.0,103652.0,76.0,97.0
2025-12-06T13:45:21.520340,15,6,106390.0,103784.0,76.0,97.0
2025-12-06T13:45:21.520340,15,7,106390.0,103784.0,76.0,97.0
2025-12-06T13:45:21.520340,15,8,106390.0,103784.0,76.0,97.0
2025-12-06T13:45:21.520340,15,9,106390.0,103784.0,76.0,97.0
2025-12-06T13:45:21.520340,15,10,106706.0,103902.0,76.0,97.0
2025-12-06T13:45:21.520340,15,11,106706.0,103902.0,76.0,97.0
2025-12-06T13:45:21.520340,15,12,106706.0,103902.0,76.0,97.0
2025-12-06T13:45:21.520340,15,13,106706.0,103902.0,76.0,97.0
2025-12-06T13:45:21.520340,15,14,106855.0,103971.0,76.0,97.0
2025-12-06T13:45:21.520340,15,15,106855.0,103971.0,76.0,97.0
2025-12-06T13:45:21.520340,15,16,106855.0,103971.0,76.0,97.0
2025-12-06T13:45:21.520340,15,17,106855.0,103971.0,76.0,97.0
2025-12-06T13:45:21.520340,15,18,105935.0,103531.0,76.0,97.0
2025-12-06T13:45:21.520340,15,19,105935.0,103531.0,76.0,97.0
2025-12-06T13:45:21.520340,15,20,105935.0,103531.0,76.0,97.0
2025-12-06T13:45:21.520340,15,21,105935.0,103531.0,76.0,97.0
2025-12-06T13:45:21.528608,15,22,105931.0,103511.0,76.0,97.0
2025-12-06T13:45:21.529269,15,23,105931.0,103511.0,76.0,97.0
2025-12-06T13:45:21.529269,15,24,105931.0,103511.0,76.0,97.0
2025-12-06T13:45:21.529269,15,25,105931.0,103511.0,76.0,97.0
2025-12-06T13:45:21.531077,15,26,106138.0,103591.0,76.0,97.0
2025-12-06T13:45:21.531470,15,27,106138.0,103591.0,76.0,97.0
2025-12-06T13:45:21.532162,15,28,106138.0,103591.0,76.0,97.0
2025-12-06T13:45:21.532162,15,29,106138.0,103591.0,76.0,97.0
2025-12-06T13:45:21.532162,15,30,106449.0,103729.0,76.0,97.0
2025-12-06T13:45:21.532162,15,31,106449.0,103729.0,76.0,97.0
2025-12-06T13:45:21.532162,15,32,106449.0,103729.0,76.0,97.0
2025-12-06T13:45:21.534500,15,33,106449.0,103729.0,76.0,97.0
2025-12-06T13:45:21.534868,15,34,106768.0,103841.0,76.0,97.0
2025-12-06T13:45:21.534868,15,35,106768.0,103841.0,76.0,97.0
2025-12-06T13:45:21.549051,15,36,106768.0,103841.0,76.0,97.0
2025-12-06T13:45:21.581634,15,37,106768.0,103841.0,76.0,97.0
2025-12-06T13:45:21.629415,15,38,106158.0,103566.0,76.0,97.0
2025-12-06T13:45:21.661640,15,39,106158.0,103566.0,76.0,97.0
2025-12-06T13:45:21.698191,15,40,106158.0,103566.0,76.0,97.0
2025-12-06T13:45:21.746034,15,41,106158.0,103566.0,76.0,97.0
2025-12-06T13:45:21.777454,15,42,105987.0,103460.0,76.0,97.0
2025-12-06T13:45:21.828414,15,43,105987.0,103460.0,76.0,97.0
2025-12-06T13:45:21.862696,15,44,105987.0,103460.0,76.0,97.0
2025-12-06T13:45:21.895884,15,45,105987.0,103460.0,76.0,97.0
2025-12-06T13:45:21.939190,15,46,106051.0,103475.0,76.0,97.0
2025-12-06T13:45:21.986447,15,47,106051.0,103475.0,76.0,97.0
2025-12-06T13:45:22.028747,15,48,106051.0,103475.0,76.0,97.0
2025-12-06T13:45:22.061835,15,49,106051.0,103475.0,76.0,97.0
2025-12-06T13:45:22.104797,15,50,106345.0,103617.0,76.0,97.0
2025-12-06T13:45:22.132959,15,51,106345.0,103617.0,76.0,97.0
2025-12-06T13:45:22.180219,15,52,106345.0,103617.0,76.0,97.0
2025-12-06T13:45:22.212589,15,53,106345.0,103617.0,76.0,97.0
2025-12-06T13:45:22.267213,15,54,106555.0,103697.0,76.0,97.0
2025-12-06T13:45:22.300586,15,55,106555.0,103697.0,76.0,97.0
2025-12-06T13:45:22.332036,15,56,106555.0,103697.0,76.0,97.0
2025-12-06T13:45:22.379284,15,57,106555.0,103697.0,76.0,97.0
2025-12-06T13:45:22.426160,15,58,105811.0,103330.0,76.0,97.0
2025-12-06T13:45:22.462739,15,59,105811.0,103330.0,76.0,97.0
2025-12-06T13:45:22.495605,15,60,105811.0,103330.0,76.0,97.0
2025-12-06T13:45:22.543832,15,61,105811.0,103330.0,76.0,97.0
2025-12-06T13:45:22.576210,15,62,105780.0,103322.0,76.0,97.0
2025-12-06T13:45:22.621981,15,63,105780.0,103322.0,76.0,97.0
2025-12-06T13:45:22.660425,15,64,105780.0,103322.0,76.0,97.0
2025-12-06T13:45:22.691622,15,65,105780.0,103322.0,76.0,97.0
2025-12-06T13:45:22.743756,15,66,105868.0,103345.0,76.0,97.0
2025-12-06T13:45:22.776525,15,67,105868.0,103345.0,76.0,97.0
2025-12-06T13:45:22.823425,15,68,105868.0,103345.0,76.0,97.0
2025-12-06T13:45:22.856329,15,69,105868.0,103345.0,76.0,97.0
2025-12-06T13:45:22.904057,15,70,106104.0,103434.0,76.0,97.0
2025-12-06T13:45:22.944136,15,71,106104.0,103434.0,76.0,97.0
2025-12-06T13:45:22.981720,15,72,106104.0,103434.0,76.0,97.0
2025-12-06T13:45:23.012827,15,73,106104.0,103434.0,76.0,97.0
2025-12-06T13:45:23.060460,15,74,106251.0,103496.0,76.0,97.0
2025-12-06T13:45:23.092238,15,75,106251.0,103496.0,76.0,97.0
2025-12-06T13:45:23.139788,15,76,106251.0,103496.0,76.0,97.0
2025-12-06T13:45:23.171451,15,77,106251.0,103496.0,76.0,97.0
2025-12-06T13:45:23.220321,15,78,105314.0,103027.0,76.0,97.0
2025-12-06T13:45:23.253820,15,79,105314.0,103027.0,76.0,97.0
2025-12-06T13:45:23.302534,15,80,105314.0,103027.0,76.0,97.0
2025-12-06T13:45:23.334358,15,81,105314.0,103027.0,76.0,97.0
2025-12-06T13:45:23.372230,15,82,105355.0,103041.0,76.0,97.0
2025-12-06T13:45:23.419958,15,83,105355.0,103041.0,76.0,97.0
2025-12-06T13:45:23.448394,15,84,105355.0,103041.0,76.0,97.0
2025-12-06T13:45:23.497535,15,85,105355.0,103041.0,76.0,97.0
2025-12-06T13:45:23.528893,15,86,105658.0,103155.0,76.0,97.0
2025-12-06T13:45:24.793439,16,0,105658.0,103155.0,73.0,96.0
2025-12-06T13:45:24.794567,16,1,105658.0,103155.0,73.0,96.0
2025-12-06T13:45:24.794567,16,2,105658.0,103155.0,73.0,96.0
2025-12-06T13:45:24.794567,16,3,105960.0,103300.0,73.0,96.0
2025-12-06T13:45:24.797181,16,4,105960.0,103300.0,73.0,96.0
2025-12-06T13:45:24.797181,16,5,105960.0,103300.0,73.0,96.0
2025-12-06T13:45:24.797181,16,6,105960.0,103300.0,73.0,96.0
2025-12-06T13:45:24.797181,16,7,105225.0,102930.0,73.0,96.0
2025-12-06T13:45:24.797181,16,8,105225.0,102930.0,73.0,96.0
2025-12-06T13:45:24.797181,16,9,105225.0,102930.0,73.0,96.0
2025-12-06T13:45:24.797181,16,10,105225.0,102930.0,73.0,96.0
2025-12-06T13:45:24.797181,16,11,105037.0,102823.0,73.0,96.0
2025-12-06T13:45:24.797181,16,12,105037.0,102823.0,73.0,96.0
2025-12-06T13:45:24.797181,16,13,105037.0,102823.0,73.0,96.0
2025-12-06T13:45:24.797181,16,14,105037.0,102823.0,73.0,96.0
2025-12-06T13:45:24.797181,16,15,105226.0,102904.0,73.0,96.0
2025-12-06T13:45:24.797181,16,16,105226.0,102904.0,73.0,96.0
2025-12-06T13:45:24.797181,16,17,105226.0,102904.0,73.0,96.0
2025-12-06T13:45:24.797181,16,18,105226.0,102904.0,73.0,96.0
2025-12-06T13:45:24.797181,16,19,105582.0,103061.0,73.0,96.0
2025-12-06T13:45:24.797181,16,20,105582.0,103061.0,73.0,96.0
2025-12-06T13:45:24.797181,16,21,105582.0,103061.0,73.0,96.0
2025-12-06T13:45:24.797181,16,22,105582.0,103061.0,73.0,96.0
2025-12-06T13:45:24.797181,16,23,105324.0,102933.0,73.0,96.0
2025-12-06T13:45:24.797181,16,24,105324.0,102933.0,73.0,96.0
2025-12-06T13:45:24.797181,16,25,105324.0,102933.0,73.0,96.0
2025-12-06T13:45:24.797181,16,26,105324.0,102933.0,73.0,96.0
2025-12-06T13:45:24.797181,16,27,104817.0,102646.0,73.0,96.0
2025-12-06T13:45:24.797181,16,28,104817.0,102646.0,73.0,96.0
2025-12-06T13:45:24.797181,16,29,104817.0,102646.0,73.0,96.0
2025-12-06T13:45:24.797181,16,30,104817.0,102646.0,73.0,96.0
2025-12-06T13:45:24.815479,16,31,105002.0,102716.0,73.0,96.0
2025-12-06T13:45:24.848148,16,32,105002.0,102716.0,73.0,96.0
2025-12-06T13:45:24.895691,16,33,105002.0,102716.0,73.0,96.0
2025-12-06T13:45:24.927625,16,34,105002.0,102716.0,73.0,96.0
2025-12-06T13:45:24.974800,16,35,105356.0,102872.0,73.0,96.0
2025-12-06T13:45:25.016397,16,36,105356.0,102872.0,73.0,96.0
2025-12-06T13:45:25.048359,16,37,105356.0,102872.0,73.0,96.0
2025-12-06T13:45:25.081182,16,38,105356.0,102872.0,73.0,96.0
2025-12-06T13:45:25.128138,16,39,104782.0,102553.0,73.0,96.0
2025-12-06T13:45:25.176906,16,40,104782.0,102553.0,73.0,96.0
2025-12-06T13:45:25.213009,16,41,104782.0,102553.0,73.0,96.0
2025-12-06T13:45:25.244230,16,42,104782.0,102553.0,73.0,96.0
2025-12-06T13:45:25.294762,16,43,104764.0,102526.0,73.0,96.0
2025-12-06T13:45:25.326133,16,44,104764.0,102526.0,73.0,96.0
2025-12-06T13:45:25.374545,16,45,104764.0,102526.0,73.0,96.0
2025-12-06T13:45:25.406374,16,46,104764.0,102526.0,73.0,96.0
2025-12-06T13:45:25.453237,16,47,104987.0,102612.0,73.0,96.0
2025-12-06T13:45:25.484489,16,48,104987.0,102612.0,73.0,96.0
2025-12-06T13:45:25.531382,16,49,104987.0,102612.0,73.0,96.0
2025-12-06T13:45:25.562332,16,50,104987.0,102612.0,73.0,96.0
2025-12-06T13:45:25.610734,16,51,105369.0,102776.0,73.0,96.0
2025-12-06T13:45:25.642020,16,52,105369.0,102776.0,73.0,96.0
2025-12-06T13:45:25.691888,16,53,105369.0,102776.0,73.0,96.0
2025-12-06T13:45:25.730650,16,54,105369.0,102776.0,73.0,96.0
2025-12-06T13:45:25.772791,16,55,104635.0,102391.0,73.0,96.0
2025-12-06T13:45:25.799475,16,56,104635.0,102391.0,73.0,96.0
2025-12-06T13:45:25.847456,16,57,104635.0,102391.0,73.0,96.0
2025-12-06T13:45:25.879069,16,58,104635.0,102391.0,73.0,96.0
2025-12-06T13:45:25.929252,16,59,104627.0,102374.0,73.0,96.0
2025-12-06T13:45:25.961160,16,60,104627.0,102374.0,73.0,96.0
2025-12-06T13:45:26.009137,16,61,104627.0,102374.0,73.0,96.0
2025-12-06T13:45:26.040780,16,62,104627.0,102374.0,73.0,96.0
2025-12-06T13:45:26.088817,16,63,104887.0,102476.0,73.0,96.0
2025-12-06T13:45:26.120088,16,64,104887.0,102476.0,73.0,96.0
2025-12-06T13:45:26.167957,16,65,104887.0,102476.0,73.0,96.0
2025-12-06T13:45:26.209290,16,66,104887.0,102476.0,73.0,96.0
2025-12-06T13:45:26.243301,16,67,105285.0,102654.0,73.0,96.0
2025-12-06T13:45:26.291936,16,68,105285.0,102654.0,73.0,96.0
2025-12-06T13:45:26.327898,16,69,105285.0,102654.0,73.0,96.0
2025-12-06T13:45:26.361173,16,70,105285.0,102654.0,73.0,96.0
2025-12-06T13:45:26.398681,16,71,104711.0,102342.0,73.0,96.0
2025-12-06T13:45:26.445511,16,72,104711.0,102342.0,73.0,96.0
2025-12-06T13:45:26.476858,16,73,104711.0,102342.0,73.0,96.0
2025-12-06T13:45:26.527486,16,74,104711.0,102342.0,73.0,96.0
2025-12-06T13:45:26.560405,16,75,104470.0,102212.0,73.0,96.0
2025-12-06T13:45:26.607287,16,76,104470.0,102212.0,73.0,96.0
2025-12-06T13:45:26.638534,16,77,104470.0,102212.0,73.0,96.0
2025-12-06T13:45:26.685421,16,78,104470.0,102212.0,73.0,96.0
2025-12-06T13:45:26.720842,16,79,104729.0,102310.0,73.0,96.0
2025-12-06T13:45:26.768359,16,80,104729.0,102310.0,73.0,96.0
2025-12-06T13:45:26.811143,16,81,104729.0,102310.0,73.0,96.0
2025-12-06T13:45:29.018307,17,0,104729.0,102310.0,74.0,95.0
2025-12-06T13:45:29.018307,17,1,105136.0,102492.0,74.0,95.0
2025-12-06T13:45:29.018307,17,2,105136.0,102492.0,74.0,95.0
2025-12-06T13:45:29.020153,17,3,105136.0,102492.0,74.0,95.0
2025-12-06T13:45:29.020153,17,4,105136.0,102492.0,74.0,95.0
2025-12-06T13:45:29.020153,17,5,105324.0,102591.0,74.0,95.0
2025-12-06T13:45:29.020153,17,6,105324.0,102591.0,74.0,95.0
2025-12-06T13:45:29.020153,17,7,105324.0,102591.0,74.0,95.0
2025-12-06T13:45:29.020153,17,8,105324.0,102591.0,74.0,95.0
2025-12-06T13:45:29.020153,17,9,104192.0,101969.0,74.0,95.0
2025-12-06T13:45:29.028197,17,10,104192.0,101969.0,74.0,95.0
2025-12-06T13:45:29.028197,17,11,104192.0,101969.0,74.0,95.0
2025-12-06T13:45:29.028197,17,12,104192.0,101969.0,74.0,95.0
2025-12-06T13:45:29.030040,17,13,103684.0,101712.0,74.0,95.0
2025-12-06T13:45:29.031152,17,14,103684.0,101712.0,74.0,95.0
2025-12-06T13:45:29.031152,17,15,103684.0,101712.0,74.0,95.0
2025-12-06T13:45:29.031152,17,16,103684.0,101712.0,74.0,95.0
2025-12-06T13:45:29.031152,17,17,103886.0,101789.0,74.0,95.0
2025-12-06T13:45:29.031152,17,18,103886.0,101789.0,74.0,95.0
2025-12-06T13:45:29.031152,17,19,103886.0,101789.0,74.0,95.0
2025-12-06T13:45:29.033919,17,20,103886.0,101789.0,74.0,95.0
2025-12-06T13:45:29.035174,17,21,104270.0,102009.0,74.0,95.0
2025-12-06T13:45:29.035174,17,22,104270.0,102009.0,74.0,95.0
2025-12-06T13:45:29.037105,17,23,104270.0,102009.0,74.0,95.0
2025-12-06T13:45:29.037383,17,24,104270.0,102009.0,74.0,95.0
2025-12-06T13:45:29.037383,17,25,103429.0,101533.0,74.0,95.0
2025-12-06T13:45:29.037383,17,26,103429.0,101533.0,74.0,95.0
2025-12-06T13:45:29.037383,17,27,103429.0,101533.0,74.0,95.0
2025-12-06T13:45:29.037383,17,28,103429.0,101533.0,74.0,95.0
2025-12-06T13:45:29.037383,17,29,103381.0,101481.0,74.0,95.0
2025-12-06T13:45:29.037383,17,30,103381.0,101481.0,74.0,95.0
2025-12-06T13:45:29.037383,17,31,103381.0,101481.0,74.0,95.0
2025-12-06T13:45:29.037383,17,32,103381.0,101481.0,74.0,95.0
2025-12-06T13:45:29.037383,17,33,103639.0,101625.0,74.0,95.0
2025-12-06T13:45:29.037383,17,34,103639.0,101625.0,74.0,95.0
2025-12-06T13:45:29.043058,17,35,103639.0,101625.0,74.0,95.0
2025-12-06T13:45:29.043058,17,36,103639.0,101625.0,74.0,95.0
2025-12-06T13:45:29.045331,17,37,104039.0,101838.0,74.0,95.0
2025-12-06T13:45:29.045832,17,38,104039.0,101838.0,74.0,95.0
2025-12-06T13:45:29.045832,17,39,104039.0,101838.0,74.0,95.0
2025-12-06T13:45:29.045832,17,40,104039.0,101838.0,74.0,95.0
2025-12-06T13:45:29.045832,17,41,104248.0,101948.0,74.0,95.0
2025-12-06T13:45:29.045832,17,42,104248.0,101948.0,74.0,95.0
2025-12-06T13:45:29.045832,17,43,104248.0,101948.0,74.0,95.0
2025-12-06T13:45:29.045832,17,44,104248.0,101948.0,74.0,95.0
2025-12-06T13:45:29.045832,17,45,103321.0,101440.0,74.0,95.0
2025-12-06T13:45:29.045832,17,46,103321.0,101440.0,74.0,95.0
2025-12-06T13:45:29.045832,17,47,103321.0,101440.0,74.0,95.0
2025-12-06T13:45:29.045832,17,48,103321.0,101440.0,74.0,95.0
2025-12-06T13:45:29.045832,17,49,103634.0,101602.0,74.0,95.0
2025-12-06T13:45:29.045832,17,50,103634.0,101602.0,74.0,95.0
2025-12-06T13:45:29.045832,17,51,103634.0,101602.0,74.0,95.0
2025-12-06T13:45:29.045832,17,52,103634.0,101602.0,74.0,95.0
2025-12-06T13:45:29.045832,17,53,104025.0,101795.0,74.0,95.0
2025-12-06T13:45:29.045832,17,54,104025.0,101795.0,74.0,95.0
2025-12-06T13:45:29.045832,17,55,104025.0,101795.0,74.0,95.0
2025-12-06T13:45:29.079471,17,56,104025.0,101795.0,74.0,95.0
2025-12-06T13:45:29.119806,17,57,104238.0,101917.0,74.0,95.0
2025-12-06T13:45:29.161111,17,58,104238.0,101917.0,74.0,95.0
2025-12-06T13:45:29.197620,17,59,104238.0,101917.0,74.0,95.0
2025-12-06T13:45:29.228830,17,60,104238.0,101917.0,74.0,95.0
2025-12-06T13:45:29.275688,17,61,103524.0,101531.0,74.0,95.0
2025-12-06T13:45:29.308431,17,62,103524.0,101531.0,74.0,95.0
2025-12-06T13:45:29.355299,17,63,103524.0,101531.0,74.0,95.0
2025-12-06T13:45:29.392459,17,64,103524.0,101531.0,74.0,95.0
2025-12-06T13:45:29.440097,17,65,103870.0,101693.0,74.0,95.0
2025-12-06T13:45:29.472493,17,66,103870.0,101693.0,74.0,95.0
2025-12-06T13:45:29.520172,17,67,103870.0,101693.0,74.0,95.0
2025-12-06T13:45:29.553483,17,68,103870.0,101693.0,74.0,95.0
2025-12-06T13:45:29.585180,17,69,104294.0,101919.0,74.0,95.0
2025-12-06T13:45:29.632589,17,70,104294.0,101919.0,74.0,95.0
2025-12-06T13:45:29.677711,17,71,104294.0,101919.0,74.0,95.0
2025-12-06T13:45:29.709831,17,72,104294.0,101919.0,74.0,95.0
2025-12-06T13:45:29.758051,17,73,104527.0,102061.0,74.0,95.0
2025-12-06T13:45:29.787783,17,74,104527.0,102061.0,74.0,95.0
2025-12-06T13:45:29.835057,17,75,104527.0,102061.0,74.0,95.0
2025-12-06T13:45:29.865934,17,76,104527.0,102061.0,74.0,95.0
2025-12-06T13:45:29.913176,17,77,103761.0,101641.0,74.0,95.0
2025-12-06T13:45:29.943228,17,78,103761.0,101641.0,74.0,95.0
2025-12-06T13:45:29.990349,17,79,103761.0,101641.0,74.0,95.0
2025-12-06T13:45:30.022595,17,80,103761.0,101641.0,74.0,95.0
2025-12-06T13:45:30.069953,17,81,104023.0,101771.0,74.0,95.0
