timestamp,window,sample,ir_raw,red_raw,true_hr,true_spo2
2025-12-06T12:58:51.968369,0,0,109573.0,102802.0,73.0,99.0
2025-12-06T12:58:51.970367,0,1,107755.0,102048.0,73.0,99.0
2025-12-06T12:58:51.970777,0,2,107755.0,102048.0,73.0,99.0
2025-12-06T12:58:51.971884,0,3,107755.0,102048.0,73.0,99.0
2025-12-06T12:58:51.971884,0,4,107755.0,102048.0,73.0,99.0
2025-12-06T12:58:51.971884,0,5,107502.0,101893.0,73.0,99.0
2025-12-06T12:58:51.971884,0,6,107502.0,101893.0,73.0,99.0
2025-12-06T12:58:51.971884,0,7,107502.0,101893.0,73.0,99.0
2025-12-06T12:58:51.971884,0,8,107502.0,101893.0,73.0,99.0
2025-12-06T12:58:51.971884,0,9,107946.0,102057.0,73.0,99.0
2025-12-06T12:58:51.971884,0,10,107946.0,102057.0,73.0,99.0
2025-12-06T12:58:51.971884,0,11,107946.0,102057.0,73.0,99.0
2025-12-06T12:58:51.971884,0,12,107946.0,102057.0,73.0,99.0
2025-12-06T12:58:51.971884,0,13,108720.0,102338.0,73.0,99.0
2025-12-06T12:58:51.971884,0,14,108720.0,102338.0,73.0,99.0
2025-12-06T12:58:51.971884,0,15,108720.0,102338.0,73.0,99.0
2025-12-06T12:58:51.971884,0,16,108720.0,102338.0,73.0,99.0
2025-12-06T12:58:51.971884,0,17,109263.0,102512.0,73.0,99.0
2025-12-06T12:58:51.971884,0,18,109263.0,102512.0,73.0,99.0
2025-12-06T12:58:51.971884,0,19,109263.0,102512.0,73.0,99.0
2025-12-06T12:58:51.979938,0,20,109263.0,102512.0,73.0,99.0
2025-12-06T12:58:51.979938,0,21,109876.0,102733.0,73.0,99.0
2025-12-06T12:58:51.981241,0,22,109876.0,102733.0,73.0,99.0
2025-12-06T12:58:51.981241,0,23,109876.0,102733.0,73.0,99.0
2025-12-06T12:58:51.982557,0,24,109876.0,102733.0,73.0,99.0
2025-12-06T12:58:51.983696,0,25,107213.0,101708.0,73.0,99.0
2025-12-06T12:58:51.983696,0,26,107213.0,101708.0,73.0,99.0
2025-12-06T12:58:51.983696,0,27,107213.0,101708.0,73.0,99.0
2025-12-06T12:58:51.983696,0,28,107213.0,101708.0,73.0,99.0
2025-12-06T12:58:51.985916,0,29,107861.0,101947.0,73.0,99.0
2025-12-06T12:58:51.986150,0,30,107861.0,101947.0,73.0,99.0
2025-12-06T12:58:51.987479,0,31,107861.0,101947.0,73.0,99.0
2025-12-06T12:58:51.989045,0,32,107861.0,101947.0,73.0,99.0
2025-12-06T12:58:51.989720,0,33,108222.0,102052.0,73.0,99.0
2025-12-06T12:58:51.990396,0,34,108222.0,102052.0,73.0,99.0
2025-12-06T12:58:51.990990,0,35,108222.0,102052.0,73.0,99.0
2025-12-06T12:58:51.990990,0,36,108222.0,102052.0,73.0,99.0
2025-12-06T12:58:51.990990,0,37,109047.0,102373.0,73.0,99.0
2025-12-06T12:58:51.990990,0,38,109047.0,102373.0,73.0,99.0
2025-12-06T12:58:51.990990,0,39,109047.0,102373.0,73.0,99.0
2025-12-06T12:58:51.990990,0,40,109047.0,102373.0,73.0,99.0
2025-12-06T12:58:51.990990,0,41,109670.0,102588.0,73.0,99.0
2025-12-06T12:58:51.990990,0,42,109670.0,102588.0,73.0,99.0
2025-12-06T12:58:51.990990,0,43,109670.0,102588.0,73.0,99.0
2025-12-06T12:58:51.990990,0,44,109670.0,102588.0,73.0,99.0
2025-12-06T12:58:51.990990,0,45,109574.0,102524.0,73.0,99.0
2025-12-06T12:58:51.990990,0,46,109574.0,102524.0,73.0,99.0
2025-12-06T12:58:51.990990,0,47,109574.0,102524.0,73.0,99.0
2025-12-06T12:58:51.990990,0,48,109574.0,102524.0,73.0,99.0
2025-12-06T12:58:51.990990,0,49,107338.0,101656.0,73.0,99.0
2025-12-06T12:58:51.990990,0,50,107338.0,101656.0,73.0,99.0
2025-12-06T12:58:51.990990,0,51,107338.0,101656.0,73.0,99.0
2025-12-06T12:58:51.999199,0,52,107338.0,101656.0,73.0,99.0
2025-12-06T12:58:51.999199,0,53,107819.0,101827.0,73.0,99.0
2025-12-06T12:58:51.999199,0,54,107819.0,101827.0,73.0,99.0
2025-12-06T12:58:51.999199,0,55,107819.0,101827.0,73.0,99.0
2025-12-06T12:58:51.999199,0,56,107819.0,101827.0,73.0,99.0
2025-12-06T12:58:51.999199,0,57,108265.0,101986.0,73.0,99.0
2025-12-06T12:58:51.999199,0,58,108265.0,101986.0,73.0,99.0
2025-12-06T12:58:51.999199,0,59,108265.0,101986.0,73.0,99.0
2025-12-06T12:58:51.999199,0,60,108265.0,101986.0,73.0,99.0
2025-12-06T12:58:51.999199,0,61,108865.0,102199.0,73.0,99.0
2025-12-06T12:58:51.999199,0,62,108865.0,102199.0,73.0,99.0
2025-12-06T12:58:51.999199,0,63,108865.0,102199.0,73.0,99.0
2025-12-06T12:58:52.005068,0,64,108865.0,102199.0,73.0,99.0
2025-12-06T12:58:52.005068,0,65,109368.0,102362.0,73.0,99.0
2025-12-06T12:58:52.006835,0,66,109368.0,102362.0,73.0,99.0
2025-12-06T12:58:52.007835,0,67,109368.0,102362.0,73.0,99.0
2025-12-06T12:58:52.008334,0,68,109368.0,102362.0,73.0,99.0
2025-12-06T12:58:52.008334,0,69,106567.0,101279.0,73.0,99.0
2025-12-06T12:58:52.008334,0,70,106567.0,101279.0,73.0,99.0
2025-12-06T12:58:52.008334,0,71,106567.0,101279.0,73.0,99.0
2025-12-06T12:58:52.008334,0,72,106567.0,101279.0,73.0,99.0
2025-12-06T12:58:52.008334,0,73,107138.0,101470.0,73.0,99.0
2025-12-06T12:58:52.008334,0,74,107138.0,101470.0,73.0,99.0
2025-12-06T12:58:52.011932,0,75,107138.0,101470.0,73.0,99.0
2025-12-06T12:58:52.011932,0,76,107138.0,101470.0,73.0,99.0
2025-12-06T12:58:52.013873,0,77,107395.0,101574.0,73.0,99.0
2025-12-06T12:58:52.014733,0,78,107395.0,101574.0,73.0,99.0
2025-12-06T12:58:52.014733,0,79,107395.0,101574.0,73.0,99.0
2025-12-06T12:58:52.016305,0,80,107395.0,101574.0,73.0,99.0
2025-12-06T12:58:52.016833,0,81,108137.0,101851.0,73.0,99.0
2025-12-06T12:58:52.017361,0,82,108137.0,101851.0,73.0,99.0
2025-12-06T12:58:52.017361,0,83,108137.0,101851.0,73.0,99.0
2025-12-06T12:58:52.017361,0,84,108137.0,101851.0,73.0,99.0
2025-12-06T12:58:52.017361,0,85,108617.0,102003.0,73.0,99.0
2025-12-06T12:58:52.017361,0,86,108617.0,102003.0,73.0,99.0
2025-12-06T12:58:52.017361,0,87,108617.0,102003.0,73.0,99.0
2025-12-06T12:58:52.017361,0,88,108617.0,102003.0,73.0,99.0
2025-12-06T12:58:52.017361,0,89,108605.0,101991.0,73.0,99.0
2025-12-06T12:58:52.017361,0,90,108605.0,101991.0,73.0,99.0
2025-12-06T12:58:52.017361,0,91,108605.0,101991.0,73.0,99.0
2025-12-06T12:58:52.021864,0,92,108605.0,101991.0,73.0,99.0
2025-12-06T12:58:52.021864,0,93,105877.0,100906.0,73.0,99.0
2025-12-06T12:58:52.023864,0,94,105877.0,100906.0,73.0,99.0
2025-12-06T12:58:52.023864,0,95,105877.0,100906.0,73.0,99.0
2025-12-06T12:58:52.023864,0,96,105877.0,100906.0,73.0,99.0
2025-12-06T12:58:52.023864,0,97,106269.0,101034.0,73.0,99.0
2025-12-06T12:58:52.023864,0,98,106269.0,101034.0,73.0,99.0
2025-12-06T12:58:52.023864,0,99,106269.0,101034.0,73.0,99.0
2025-12-06T12:58:52.023864,0,100,106269.0,101034.0,73.0,99.0
2025-12-06T12:58:52.023864,0,101,106671.0,101175.0,73.0,99.0
2025-12-06T12:58:52.023864,0,102,106671.0,101175.0,73.0,99.0
2025-12-06T12:58:52.023864,0,103,106671.0,101175.0,73.0,99.0
2025-12-06T12:58:52.023864,0,104,106671.0,101175.0,73.0,99.0
2025-12-06T12:58:52.023864,0,105,107291.0,101392.0,73.0,99.0
2025-12-06T12:58:52.023864,0,106,107291.0,101392.0,73.0,99.0
2025-12-06T12:58:52.023864,0,107,107291.0,101392.0,73.0,99.0
2025-12-06T12:58:52.023864,0,108,107291.0,101392.0,73.0,99.0
2025-12-06T12:58:52.023864,0,109,107674.0,101534.0,73.0,99.0
2025-12-06T12:58:52.023864,0,110,107674.0,101534.0,73.0,99.0
2025-12-06T12:58:52.023864,0,111,107674.0,101534.0,73.0,99.0
2025-12-06T12:58:52.023864,0,112,107674.0,101534.0,73.0,99.0
2025-12-06T12:58:52.023864,0,113,106455.0,101046.0,73.0,99.0
2025-12-06T12:58:52.023864,0,114,106455.0,101046.0,73.0,99.0
2025-12-06T12:58:52.023864,0,115,106455.0,101046.0,73.0,99.0
2025-12-06T12:58:52.023864,0,116,106455.0,101046.0,73.0,99.0
2025-12-06T12:58:52.023864,0,117,105213.0,100536.0,73.0,99.0
2025-12-06T12:58:52.023864,0,118,105213.0,100536.0,73.0,99.0
2025-12-06T12:58:52.023864,0,119,105213.0,100536.0,73.0,99.0
2025-12-06T12:58:52.023864,0,120,105213.0,100536.0,73.0,99.0
2025-12-06T12:58:52.023864,0,121,105604.0,100697.0,73.0,99.0
2025-12-06T12:58:52.023864,0,122,105604.0,100697.0,73.0,99.0
2025-12-06T12:58:52.023864,0,123,105604.0,100697.0,73.0,99.0
2025-12-06T12:58:52.023864,0,124,105604.0,100697.0,73.0,99.0
2025-12-06T12:58:52.023864,0,125,106247.0,100942.0,73.0,99.0
2025-12-06T12:58:52.038392,0,126,106247.0,100942.0,73.0,99.0
2025-12-06T12:58:52.038392,0,127,106247.0,100942.0,73.0,99.0
2025-12-06T12:58:52.038392,0,128,106247.0,100942.0,73.0,99.0
2025-12-06T12:58:52.038392,0,129,106727.0,101125.0,73.0,99.0
2025-12-06T12:58:52.038392,0,130,106727.0,101125.0,73.0,99.0
2025-12-06T12:58:52.038392,0,131,106727.0,101125.0,73.0,99.0
2025-12-06T12:58:52.038392,0,132,106727.0,101125.0,73.0,99.0
2025-12-06T12:58:52.038392,0,133,107290.0,101335.0,73.0,99.0
2025-12-06T12:58:52.038392,0,134,107290.0,101335.0,73.0,99.0
2025-12-06T12:58:52.046434,0,135,107290.0,101335.0,73.0,99.0
2025-12-06T12:58:52.073126,0,136,107290.0,101335.0,73.0,99.0
2025-12-06T12:58:52.122117,0,137,105225.0,100540.0,73.0,99.0
2025-12-06T12:58:52.153585,0,138,105225.0,100540.0,73.0,99.0
2025-12-06T12:58:52.200472,0,139,105225.0,100540.0,73.0,99.0
2025-12-06T12:58:52.232750,0,140,105225.0,100540.0,73.0,99.0
2025-12-06T12:58:52.280000,0,141,105081.0,100483.0,73.0,99.0
2025-12-06T12:58:52.326494,0,142,105081.0,100483.0,73.0,99.0
2025-12-06T12:58:52.358118,0,143,105081.0,100483.0,73.0,99.0
2025-12-06T12:58:52.404808,0,144,105081.0,100483.0,73.0,99.0
2025-12-06T12:58:52.436233,0,145,105414.0,100628.0,73.0,99.0
2025-12-06T12:58:52.483118,0,146,105414.0,100628.0,73.0,99.0
2025-12-06T12:58:52.523274,0,147,105414.0,100628.0,73.0,99.0
2025-12-06T12:58:52.560554,0,148,105414.0,100628.0,73.0,99.0
2025-12-06T12:58:52.591831,0,149,106076.0,100879.0,73.0,99.0
2025-12-06T12:58:52.639252,0,150,106076.0,100879.0,73.0,99.0
2025-12-06T12:58:52.671598,0,151,106076.0,100879.0,73.0,99.0
2025-12-06T12:58:52.718484,0,152,106076.0,100879.0,73.0,99.0
2025-12-06T12:58:52.750221,0,153,106587.0,101081.0,73.0,99.0
2025-12-06T12:58:52.799543,0,154,106587.0,101081.0,73.0,99.0
2025-12-06T12:58:52.831300,0,155,106587.0,101081.0,73.0,99.0
2025-12-06T12:58:52.879675,0,156,106587.0,101081.0,73.0,99.0
2025-12-06T12:58:52.916759,0,157,107037.0,101250.0,73.0,99.0
2025-12-06T12:58:52.948230,0,158,107037.0,101250.0,73.0,99.0
2025-12-06T12:58:52.994915,0,159,107037.0,101250.0,73.0,99.0
2025-12-06T12:58:53.039170,0,160,107037.0,101250.0,73.0,99.0
2025-12-06T12:58:53.070674,0,161,104323.0,100185.0,73.0,99.0
2025-12-06T12:58:53.117516,0,162,104323.0,100185.0,73.0,99.0
2025-12-06T12:58:53.155867,0,163,104323.0,100185.0,73.0,99.0
2025-12-06T12:58:53.188487,0,164,104323.0,100185.0,73.0,99.0
2025-12-06T12:58:53.236975,0,165,105118.0,100524.0,73.0,99.0
2025-12-06T12:58:53.268204,0,166,105118.0,100524.0,73.0,99.0
2025-12-06T12:58:53.315075,0,167,105118.0,100524.0,73.0,99.0
2025-12-06T12:58:53.361587,0,168,105118.0,100524.0,73.0,99.0
2025-12-06T12:58:53.393194,0,169,105305.0,100569.0,73.0,99.0
2025-12-06T12:58:53.439710,0,170,105305.0,100569.0,73.0,99.0
2025-12-06T12:58:53.471344,0,171,105305.0,100569.0,73.0,99.0
2025-12-06T12:58:53.518348,0,172,105305.0,100569.0,73.0,99.0
2025-12-06T12:58:53.547071,0,173,105988.0,100848.0,73.0,99.0
2025-12-06T12:58:53.599356,0,174,105988.0,100848.0,73.0,99.0
2025-12-06T12:58:53.637551,0,175,105988.0,100848.0,73.0,99.0
2025-12-06T12:58:53.674754,0,176,105988.0,100848.0,73.0,99.0
2025-12-06T12:58:53.705699,0,177,106376.0,100967.0,73.0,99.0
2025-12-06T12:58:53.754647,0,178,106376.0,100967.0,73.0,99.0
2025-12-06T12:58:53.787112,0,179,106376.0,100967.0,73.0,99.0
2025-12-06T12:58:53.833993,0,180,106376.0,100967.0,73.0,99.0
2025-12-06T12:58:53.865247,0,181,106553.0,101041.0,73.0,99.0
2025-12-06T12:58:53.912116,0,182,106553.0,101041.0,73.0,99.0
2025-12-06T12:58:53.958615,0,183,106553.0,101041.0,73.0,99.0
2025-12-06T12:58:53.989972,0,184,106553.0,101041.0,73.0,99.0
2025-12-06T12:58:56.837284,1,0,104146.0,100102.0,70.0,99.0
2025-12-06T12:58:56.837284,1,1,104146.0,100102.0,70.0,99.0
2025-12-06T12:58:56.837284,1,2,104146.0,100102.0,70.0,99.0
2025-12-06T12:58:56.845341,1,3,104146.0,100102.0,70.0,99.0
2025-12-06T12:58:56.845341,1,4,104827.0,100372.0,70.0,99.0
2025-12-06T12:58:56.845341,1,5,104827.0,100372.0,70.0,99.0
2025-12-06T12:58:56.845341,1,6,104827.0,100372.0,70.0,99.0
2025-12-06T12:58:56.845341,1,7,104827.0,100372.0,70.0,99.0
2025-12-06T12:58:56.845341,1,8,105464.0,100631.0,70.0,99.0
2025-12-06T12:58:56.845341,1,9,105464.0,100631.0,70.0,99.0
2025-12-06T12:58:56.845341,1,10,105464.0,100631.0,70.0,99.0
2025-12-06T12:58:56.853346,1,11,105464.0,100631.0,70.0,99.0
2025-12-06T12:58:56.853346,1,12,106168.0,100931.0,70.0,99.0
2025-12-06T12:58:56.853346,1,13,106168.0,100931.0,70.0,99.0
2025-12-06T12:58:56.853346,1,14,106168.0,100931.0,70.0,99.0
2025-12-06T12:58:56.853346,1,15,106168.0,100931.0,70.0,99.0
2025-12-06T12:58:56.853346,1,16,106586.0,101051.0,70.0,99.0
2025-12-06T12:58:56.853346,1,17,106586.0,101051.0,70.0,99.0
2025-12-06T12:58:56.853346,1,18,106586.0,101051.0,70.0,99.0
2025-12-06T12:58:56.853346,1,19,106586.0,101051.0,70.0,99.0
2025-12-06T12:58:56.853346,1,20,105551.0,100665.0,70.0,99.0
2025-12-06T12:58:56.853346,1,21,105551.0,100665.0,70.0,99.0
2025-12-06T12:58:56.853346,1,22,105551.0,100665.0,70.0,99.0
2025-12-06T12:58:56.853346,1,23,105551.0,100665.0,70.0,99.0
2025-12-06T12:58:56.861671,1,24,104505.0,100233.0,70.0,99.0
2025-12-06T12:58:56.862572,1,25,104505.0,100233.0,70.0,99.0
2025-12-06T12:58:56.863491,1,26,104505.0,100233.0,70.0,99.0
2025-12-06T12:58:56.863491,1,27,104505.0,100233.0,70.0,99.0
2025-12-06T12:58:56.863491,1,28,104960.0,100423.0,70.0,99.0
2025-12-06T12:58:56.865548,1,29,104960.0,100423.0,70.0,99.0
2025-12-06T12:58:56.865548,1,30,104960.0,100423.0,70.0,99.0
2025-12-06T12:58:56.865548,1,31,104960.0,100423.0,70.0,99.0
2025-12-06T12:58:56.867228,1,32,105626.0,100684.0,70.0,99.0
2025-12-06T12:58:56.867228,1,33,105626.0,100684.0,70.0,99.0
2025-12-06T12:58:56.867228,1,34,105626.0,100684.0,70.0,99.0
2025-12-06T12:58:56.867228,1,35,105626.0,100684.0,70.0,99.0
2025-12-06T12:58:56.867228,1,36,106095.0,100853.0,70.0,99.0
2025-12-06T12:58:56.867228,1,37,106095.0,100853.0,70.0,99.0
2025-12-06T12:58:56.867228,1,38,106095.0,100853.0,70.0,99.0
2025-12-06T12:58:56.867228,1,39,106095.0,100853.0,70.0,99.0
2025-12-06T12:58:56.867228,1,40,106500.0,101023.0,70.0,99.0
2025-12-06T12:58:56.872129,1,41,106500.0,101023.0,70.0,99.0
2025-12-06T12:58:56.872279,1,42,106500.0,101023.0,70.0,99.0
2025-12-06T12:58:56.873236,1,43,106500.0,101023.0,70.0,99.0
2025-12-06T12:58:56.873236,1,44,103996.0,100001.0,70.0,99.0
2025-12-06T12:58:56.873236,1,45,103996.0,100001.0,70.0,99.0
2025-12-06T12:58:56.876075,1,46,103996.0,100001.0,70.0,99.0
2025-12-06T12:58:56.876875,1,47,103996.0,100001.0,70.0,99.0
2025-12-06T12:58:56.877631,1,48,104431.0,100157.0,70.0,99.0
2025-12-06T12:58:56.877631,1,49,104431.0,100157.0,70.0,99.0
2025-12-06T12:58:56.879229,1,50,104431.0,100157.0,70.0,99.0
2025-12-06T12:58:56.880366,1,51,104431.0,100157.0,70.0,99.0
2025-12-06T12:58:56.880366,1,52,104611.0,100210.0,70.0,99.0
2025-12-06T12:58:56.880366,1,53,104611.0,100210.0,70.0,99.0
2025-12-06T12:58:56.880366,1,54,104611.0,100210.0,70.0,99.0
2025-12-06T12:58:56.880366,1,55,104611.0,100210.0,70.0,99.0
2025-12-06T12:58:56.880366,1,56,105308.0,100494.0,70.0,99.0
2025-12-06T12:58:56.880366,1,57,105308.0,100494.0,70.0,99.0
2025-12-06T12:58:56.880366,1,58,105308.0,100494.0,70.0,99.0
2025-12-06T12:58:56.880366,1,59,105308.0,100494.0,70.0,99.0
2025-12-06T12:58:56.880366,1,60,105960.0,100750.0,70.0,99.0
2025-12-06T12:58:56.880366,1,61,105960.0,100750.0,70.0,99.0
2025-12-06T12:58:56.880366,1,62,105960.0,100750.0,70.0,99.0
2025-12-06T12:58:56.880366,1,63,105960.0,100750.0,70.0,99.0
2025-12-06T12:58:56.880366,1,64,106484.0,100951.0,70.0,99.0
2025-12-06T12:58:56.888591,1,65,106484.0,100951.0,70.0,99.0
2025-12-06T12:58:56.888591,1,66,106484.0,100951.0,70.0,99.0
2025-12-06T12:58:56.888591,1,67,106484.0,100951.0,70.0,99.0
2025-12-06T12:58:56.888591,1,68,103879.0,99882.0,70.0,99.0
2025-12-06T12:58:56.888591,1,69,103879.0,99882.0,70.0,99.0
2025-12-06T12:58:56.888591,1,70,103879.0,99882.0,70.0,99.0
2025-12-06T12:58:56.888591,1,71,103879.0,99882.0,70.0,99.0
2025-12-06T12:58:56.906313,1,72,104495.0,100120.0,70.0,99.0
2025-12-06T12:58:56.938781,1,73,104495.0,100120.0,70.0,99.0
2025-12-06T12:58:56.986760,1,74,104495.0,100120.0,70.0,99.0
2025-12-06T12:58:57.018315,1,75,104495.0,100120.0,70.0,99.0
2025-12-06T12:58:57.065162,1,76,104787.0,100242.0,70.0,99.0
2025-12-06T12:58:57.096432,1,77,104787.0,100242.0,70.0,99.0
2025-12-06T12:58:57.136686,1,78,104787.0,100242.0,70.0,99.0
2025-12-06T12:58:57.184047,1,79,104787.0,100242.0,70.0,99.0
2025-12-06T12:58:57.216328,1,80,105325.0,100438.0,70.0,99.0
2025-12-06T12:58:57.265203,1,81,105325.0,100438.0,70.0,99.0
2025-12-06T12:58:57.296605,1,82,105325.0,100438.0,70.0,99.0
2025-12-06T12:58:57.343473,1,83,105325.0,100438.0,70.0,99.0
2025-12-06T12:58:57.380345,1,84,105843.0,100640.0,70.0,99.0
2025-12-06T12:58:57.420832,1,85,105843.0,100640.0,70.0,99.0
2025-12-06T12:58:57.452082,1,86,105843.0,100640.0,70.0,99.0
2025-12-06T12:58:57.499888,1,87,105843.0,100640.0,70.0,99.0
2025-12-06T12:58:57.534870,1,88,104582.0,100147.0,70.0,99.0
2025-12-06T12:58:57.581967,1,89,104582.0,100147.0,70.0,99.0
2025-12-06T12:58:57.620824,1,90,104582.0,100147.0,70.0,99.0
2025-12-06T12:58:57.665776,1,91,104582.0,100147.0,70.0,99.0
2025-12-06T12:58:57.697459,1,92,103948.0,99878.0,70.0,99.0
2025-12-06T12:58:57.744558,1,93,103948.0,99878.0,70.0,99.0
2025-12-06T12:58:57.777449,1,94,103948.0,99878.0,70.0,99.0
2025-12-06T12:58:57.823986,1,95,103948.0,99878.0,70.0,99.0
2025-12-06T12:58:57.855239,1,96,104231.0,99974.0,70.0,99.0
2025-12-06T12:58:57.888777,1,97,104231.0,99974.0,70.0,99.0
2025-12-06T12:58:57.937504,1,98,104231.0,99974.0,70.0,99.0
2025-12-06T12:58:57.969275,1,99,104231.0,99974.0,70.0,99.0
2025-12-06T12:58:58.016990,1,100,104714.0,100161.0,70.0,99.0
2025-12-06T12:58:58.048670,1,101,104714.0,100161.0,70.0,99.0
2025-12-06T12:58:58.095327,1,102,104714.0,100161.0,70.0,99.0
2025-12-06T12:58:58.138695,1,103,104714.0,100161.0,70.0,99.0
2025-12-06T12:58:58.177536,1,104,105030.0,100286.0,70.0,99.0
2025-12-06T12:58:58.209663,1,105,105030.0,100286.0,70.0,99.0
2025-12-06T12:58:58.258976,1,106,105030.0,100286.0,70.0,99.0
2025-12-06T12:58:58.290245,1,107,105030.0,100286.0,70.0,99.0
2025-12-06T12:58:58.337102,1,108,104921.0,100241.0,70.0,99.0
2025-12-06T12:58:58.368346,1,109,104921.0,100241.0,70.0,99.0
2025-12-06T12:58:58.421685,1,110,104921.0,100241.0,70.0,99.0
2025-12-06T12:58:58.454115,1,111,104921.0,100241.0,70.0,99.0
2025-12-06T12:58:58.500799,1,112,103528.0,99647.0,70.0,99.0
2025-12-06T12:58:58.532427,1,113,103528.0,99647.0,70.0,99.0
2025-12-06T12:58:58.579284,1,114,103528.0,99647.0,70.0,99.0
2025-12-06T12:58:58.611405,1,115,103528.0,99647.0,70.0,99.0
2025-12-06T12:58:58.651849,1,116,103987.0,99837.0,70.0,99.0
2025-12-06T12:58:58.699611,1,117,103987.0,99837.0,70.0,99.0
2025-12-06T12:58:58.731001,1,118,103987.0,99837.0,70.0,99.0
2025-12-06T12:58:58.779448,1,119,103987.0,99837.0,70.0,99.0
2025-12-06T12:58:58.810720,1,120,104623.0,100096.0,70.0,99.0
2025-12-06T12:58:58.858921,1,121,104623.0,100096.0,70.0,99.0
2025-12-06T12:59:01.325786,2,0,104623.0,100096.0,68.0,99.0
2025-12-06T12:59:01.325786,2,1,104623.0,100096.0,68.0,99.0
2025-12-06T12:59:01.325786,2,2,105152.0,100300.0,68.0,99.0
2025-12-06T12:59:01.328829,2,3,105152.0,100300.0,68.0,99.0
2025-12-06T12:59:01.328829,2,4,105152.0,100300.0,68.0,99.0
2025-12-06T12:59:01.328829,2,5,105152.0,100300.0,68.0,99.0
2025-12-06T12:59:01.328829,2,6,105513.0,100443.0,68.0,99.0
2025-12-06T12:59:01.328829,2,7,105513.0,100443.0,68.0,99.0
2025-12-06T12:59:01.328829,2,8,105513.0,100443.0,68.0,99.0
2025-12-06T12:59:01.328829,2,9,105513.0,100443.0,68.0,99.0
2025-12-06T12:59:01.328829,2,10,103286.0,99532.0,68.0,99.0
2025-12-06T12:59:01.328829,2,11,103286.0,99532.0,68.0,99.0
2025-12-06T12:59:01.328829,2,12,103286.0,99532.0,68.0,99.0
2025-12-06T12:59:01.328829,2,13,103286.0,99532.0,68.0,99.0
2025-12-06T12:59:01.328829,2,14,103979.0,99816.0,68.0,99.0
2025-12-06T12:59:01.328829,2,15,103979.0,99816.0,68.0,99.0
2025-12-06T12:59:01.328829,2,16,103979.0,99816.0,68.0,99.0
2025-12-06T12:59:01.328829,2,17,103979.0,99816.0,68.0,99.0
2025-12-06T12:59:01.328829,2,18,104448.0,100015.0,68.0,99.0
2025-12-06T12:59:01.328829,2,19,104448.0,100015.0,68.0,99.0
2025-12-06T12:59:01.336762,2,20,104448.0,100015.0,68.0,99.0
2025-12-06T12:59:01.336762,2,21,104448.0,100015.0,68.0,99.0
2025-12-06T12:59:01.336762,2,22,104980.0,100220.0,68.0,99.0
2025-12-06T12:59:01.336762,2,23,104980.0,100220.0,68.0,99.0
2025-12-06T12:59:01.336762,2,24,104980.0,100220.0,68.0,99.0
2025-12-06T12:59:01.336762,2,25,104980.0,100220.0,68.0,99.0
2025-12-06T12:59:01.336762,2,26,105423.0,100408.0,68.0,99.0
2025-12-06T12:59:01.336762,2,27,105423.0,100408.0,68.0,99.0
2025-12-06T12:59:01.336762,2,28,105423.0,100408.0,68.0,99.0
2025-12-06T12:59:01.336762,2,29,105423.0,100408.0,68.0,99.0
2025-12-06T12:59:01.336762,2,30,102889.0,99329.0,68.0,99.0
2025-12-06T12:59:01.336762,2,31,102889.0,99329.0,68.0,99.0
2025-12-06T12:59:01.336762,2,32,102889.0,99329.0,68.0,99.0
2025-12-06T12:59:01.336762,2,33,102889.0,99329.0,68.0,99.0
2025-12-06T12:59:01.336762,2,34,103428.0,99530.0,68.0,99.0
2025-12-06T12:59:01.336762,2,35,103428.0,99530.0,68.0,99.0
2025-12-06T12:59:01.336762,2,36,103428.0,99530.0,68.0,99.0
2025-12-06T12:59:01.336762,2,37,103428.0,99530.0,68.0,99.0
2025-12-06T12:59:01.336762,2,38,103657.0,99608.0,68.0,99.0
2025-12-06T12:59:01.344813,2,39,103657.0,99608.0,68.0,99.0
2025-12-06T12:59:01.344813,2,40,103657.0,99608.0,68.0,99.0
2025-12-06T12:59:01.345917,2,41,103657.0,99608.0,68.0,99.0
2025-12-06T12:59:01.345917,2,42,103994.0,99728.0,68.0,99.0
2025-12-06T12:59:01.345917,2,43,103994.0,99728.0,68.0,99.0
2025-12-06T12:59:01.347623,2,44,103994.0,99728.0,68.0,99.0
2025-12-06T12:59:01.348242,2,45,103994.0,99728.0,68.0,99.0
2025-12-06T12:59:01.348265,2,46,104388.0,99866.0,68.0,99.0
2025-12-06T12:59:01.348265,2,47,104388.0,99866.0,68.0,99.0
2025-12-06T12:59:01.348265,2,48,104388.0,99866.0,68.0,99.0
2025-12-06T12:59:01.348265,2,49,104388.0,99866.0,68.0,99.0
2025-12-06T12:59:01.348265,2,50,103109.0,99359.0,68.0,99.0
2025-12-06T12:59:01.350794,2,51,103109.0,99359.0,68.0,99.0
2025-12-06T12:59:01.351839,2,52,103109.0,99359.0,68.0,99.0
2025-12-06T12:59:01.352247,2,53,103109.0,99359.0,68.0,99.0
2025-12-06T12:59:01.353408,2,54,102272.0,98949.0,68.0,99.0
2025-12-06T12:59:01.354537,2,55,102272.0,98949.0,68.0,99.0
2025-12-06T12:59:01.355085,2,56,102272.0,98949.0,68.0,99.0
2025-12-06T12:59:01.355085,2,57,102272.0,98949.0,68.0,99.0
2025-12-06T12:59:01.355928,2,58,102826.0,99173.0,68.0,99.0
2025-12-06T12:59:01.355928,2,59,102826.0,99173.0,68.0,99.0
2025-12-06T12:59:01.355928,2,60,102826.0,99173.0,68.0,99.0
2025-12-06T12:59:01.355928,2,61,102826.0,99173.0,68.0,99.0
2025-12-06T12:59:01.370046,2,62,103511.0,99437.0,68.0,99.0
2025-12-06T12:59:01.403633,2,63,103511.0,99437.0,68.0,99.0
2025-12-06T12:59:01.438086,2,64,103511.0,99437.0,68.0,99.0
2025-12-06T12:59:01.486835,2,65,103511.0,99437.0,68.0,99.0
2025-12-06T12:59:01.518450,2,66,103999.0,99662.0,68.0,99.0
2025-12-06T12:59:01.570101,2,67,103999.0,99662.0,68.0,99.0
2025-12-06T12:59:01.601667,2,68,103999.0,99662.0,68.0,99.0
2025-12-06T12:59:01.648539,2,69,103999.0,99662.0,68.0,99.0
2025-12-06T12:59:01.680577,2,70,104504.0,99869.0,68.0,99.0
2025-12-06T12:59:01.718424,2,71,104504.0,99869.0,68.0,99.0
2025-12-06T12:59:01.756390,2,72,104504.0,99869.0,68.0,99.0
2025-12-06T12:59:01.806258,2,73,104504.0,99869.0,68.0,99.0
2025-12-06T12:59:01.837563,2,74,104741.0,99968.0,68.0,99.0
2025-12-06T12:59:01.876267,2,75,104741.0,99968.0,68.0,99.0
2025-12-06T12:59:01.917508,2,76,104741.0,99968.0,68.0,99.0
2025-12-06T12:59:01.964674,2,77,104741.0,99968.0,68.0,99.0
2025-12-06T12:59:01.995916,2,78,102036.0,98785.0,68.0,99.0
2025-12-06T12:59:02.043987,2,79,102036.0,98785.0,68.0,99.0
2025-12-06T12:59:02.075243,2,80,102036.0,98785.0,68.0,99.0
2025-12-06T12:59:02.120766,2,81,102036.0,98785.0,68.0,99.0
2025-12-06T12:59:02.168385,2,82,102503.0,98933.0,68.0,99.0
2025-12-06T12:59:02.200051,2,83,102503.0,98933.0,68.0,99.0
2025-12-06T12:59:02.246107,2,84,102503.0,98933.0,68.0,99.0
2025-12-06T12:59:02.277367,2,85,102503.0,98933.0,68.0,99.0
2025-12-06T12:59:02.325732,2,86,102908.0,99101.0,68.0,99.0
2025-12-06T12:59:02.363146,2,87,102908.0,99101.0,68.0,99.0
2025-12-06T12:59:02.394419,2,88,102908.0,99101.0,68.0,99.0
2025-12-06T12:59:02.441982,2,89,102908.0,99101.0,68.0,99.0
2025-12-06T12:59:02.473380,2,90,103472.0,99301.0,68.0,99.0
2025-12-06T12:59:02.520134,2,91,103472.0,99301.0,68.0,99.0
2025-12-06T12:59:02.565259,2,92,103472.0,99301.0,68.0,99.0
2025-12-06T12:59:02.602476,2,93,103472.0,99301.0,68.0,99.0
2025-12-06T12:59:02.636554,2,94,103912.0,99505.0,68.0,99.0
2025-12-06T12:59:02.681808,2,95,103912.0,99505.0,68.0,99.0
2025-12-06T12:59:02.724103,2,96,103912.0,99505.0,68.0,99.0
2025-12-06T12:59:02.759910,2,97,103912.0,99505.0,68.0,99.0
2025-12-06T12:59:02.802562,2,98,104474.0,99740.0,68.0,99.0
2025-12-06T12:59:02.838395,2,99,104474.0,99740.0,68.0,99.0
2025-12-06T12:59:02.875812,2,100,104474.0,99740.0,68.0,99.0
2025-12-06T12:59:02.920439,2,101,104474.0,99740.0,68.0,99.0
2025-12-06T12:59:02.952536,2,102,101910.0,98583.0,68.0,99.0
2025-12-06T12:59:03.001652,2,103,101910.0,98583.0,68.0,99.0
2025-12-06T12:59:03.034922,2,104,101910.0,98583.0,68.0,99.0
2025-12-06T12:59:03.081738,2,105,101910.0,98583.0,68.0,99.0
2025-12-06T12:59:03.117363,2,106,102223.0,98710.0,68.0,99.0
2025-12-06T12:59:03.155345,2,107,102223.0,98710.0,68.0,99.0
2025-12-06T12:59:03.201639,2,108,102223.0,98710.0,68.0,99.0
2025-12-06T12:59:03.242177,2,109,102223.0,98710.0,68.0,99.0
2025-12-06T12:59:03.275337,2,110,102840.0,98954.0,68.0,99.0
2025-12-06T12:59:03.318069,2,111,102840.0,98954.0,68.0,99.0
2025-12-06T12:59:03.352160,2,112,102840.0,98954.0,68.0,99.0
2025-12-06T12:59:07.115951,3,0,102840.0,98954.0,67.0,99.0
2025-12-06T12:59:07.115951,3,1,103573.0,99263.0,67.0,99.0
2025-12-06T12:59:07.117358,3,2,103573.0,99263.0,67.0,99.0
2025-12-06T12:59:07.117358,3,3,103573.0,99263.0,67.0,99.0
2025-12-06T12:59:07.118655,3,4,103573.0,99263.0,67.0,99.0
2025-12-06T12:59:07.118655,3,5,104165.0,99513.0,67.0,99.0
2025-12-06T12:59:07.118655,3,6,104165.0,99513.0,67.0,99.0
2025-12-06T12:59:07.118655,3,7,104165.0,99513.0,67.0,99.0
2025-12-06T12:59:07.118655,3,8,104165.0,99513.0,67.0,99.0
2025-12-06T12:59:07.118655,3,9,104716.0,99751.0,67.0,99.0
2025-12-06T12:59:07.118655,3,10,104716.0,99751.0,67.0,99.0
2025-12-06T12:59:07.118655,3,11,104716.0,99751.0,67.0,99.0
2025-12-06T12:59:07.118655,3,12,104716.0,99751.0,67.0,99.0
2025-12-06T12:59:07.118655,3,13,102473.0,98758.0,67.0,99.0
2025-12-06T12:59:07.118655,3,14,102473.0,98758.0,67.0,99.0
2025-12-06T12:59:07.126737,3,15,102473.0,98758.0,67.0,99.0
2025-12-06T12:59:07.127947,3,16,102473.0,98758.0,67.0,99.0
2025-12-06T12:59:07.127947,3,17,102459.0,98710.0,67.0,99.0
2025-12-06T12:59:07.129940,3,18,102459.0,98710.0,67.0,99.0
2025-12-06T12:59:07.130201,3,19,102459.0,98710.0,67.0,99.0
2025-12-06T12:59:07.130201,3,20,102459.0,98710.0,67.0,99.0
2025-12-06T12:59:07.131569,3,21,102976.0,98932.0,67.0,99.0
2025-12-06T12:59:07.131569,3,22,102976.0,98932.0,67.0,99.0
2025-12-06T12:59:07.131569,3,23,102976.0,98932.0,67.0,99.0
2025-12-06T12:59:07.131569,3,24,102976.0,98932.0,67.0,99.0
2025-12-06T12:59:07.131569,3,25,103723.0,99232.0,67.0,99.0
2025-12-06T12:59:07.134017,3,26,103723.0,99232.0,67.0,99.0
2025-12-06T12:59:07.134366,3,27,103723.0,99232.0,67.0,99.0
2025-12-06T12:59:07.134366,3,28,103723.0,99232.0,67.0,99.0
2025-12-06T12:59:07.136198,3,29,104274.0,99451.0,67.0,99.0
2025-12-06T12:59:07.137422,3,30,104274.0,99451.0,67.0,99.0
2025-12-06T12:59:07.138021,3,31,104274.0,99451.0,67.0,99.0
2025-12-06T12:59:07.139042,3,32,104274.0,99451.0,67.0,99.0
2025-12-06T12:59:07.139042,3,33,104862.0,99717.0,67.0,99.0
2025-12-06T12:59:07.139042,3,34,104862.0,99717.0,67.0,99.0
2025-12-06T12:59:07.139042,3,35,104862.0,99717.0,67.0,99.0
2025-12-06T12:59:07.139042,3,36,104862.0,99717.0,67.0,99.0
2025-12-06T12:59:07.139042,3,37,104281.0,99468.0,67.0,99.0
2025-12-06T12:59:07.139042,3,38,104281.0,99468.0,67.0,99.0
2025-12-06T12:59:07.139042,3,39,104281.0,99468.0,67.0,99.0
2025-12-06T12:59:07.139042,3,40,104281.0,99468.0,67.0,99.0
2025-12-06T12:59:07.139042,3,41,102834.0,98795.0,67.0,99.0
2025-12-06T12:59:07.139042,3,42,102834.0,98795.0,67.0,99.0
2025-12-06T12:59:07.139042,3,43,102834.0,98795.0,67.0,99.0
2025-12-06T12:59:07.139042,3,44,102834.0,98795.0,67.0,99.0
2025-12-06T12:59:07.139042,3,45,103294.0,98969.0,67.0,99.0
2025-12-06T12:59:07.139042,3,46,103294.0,98969.0,67.0,99.0
2025-12-06T12:59:07.139042,3,47,103294.0,98969.0,67.0,99.0
2025-12-06T12:59:07.139042,3,48,103294.0,98969.0,67.0,99.0
2025-12-06T12:59:07.139042,3,49,103932.0,99248.0,67.0,99.0
2025-12-06T12:59:07.139042,3,50,103932.0,99248.0,67.0,99.0
2025-12-06T12:59:07.139042,3,51,103932.0,99248.0,67.0,99.0
2025-12-06T12:59:07.147088,3,52,103932.0,99248.0,67.0,99.0
2025-12-06T12:59:07.147371,3,53,104471.0,99481.0,67.0,99.0
2025-12-06T12:59:07.147371,3,54,104471.0,99481.0,67.0,99.0
2025-12-06T12:59:07.147371,3,55,104471.0,99481.0,67.0,99.0
2025-12-06T12:59:07.147371,3,56,104471.0,99481.0,67.0,99.0
2025-12-06T12:59:07.147371,3,57,104983.0,99687.0,67.0,99.0
2025-12-06T12:59:07.147371,3,58,104983.0,99687.0,67.0,99.0
2025-12-06T12:59:07.147371,3,59,104983.0,99687.0,67.0,99.0
2025-12-06T12:59:07.147371,3,60,104983.0,99687.0,67.0,99.0
2025-12-06T12:59:07.147371,3,61,105501.0,99911.0,67.0,99.0
2025-12-06T12:59:07.151855,3,62,105501.0,99911.0,67.0,99.0
2025-12-06T12:59:07.151855,3,63,105501.0,99911.0,67.0,99.0
2025-12-06T12:59:07.151855,3,64,105501.0,99911.0,67.0,99.0
2025-12-06T12:59:07.151855,3,65,103011.0,98783.0,67.0,99.0
2025-12-06T12:59:07.151855,3,66,103011.0,98783.0,67.0,99.0
2025-12-06T12:59:07.151855,3,67,103011.0,98783.0,67.0,99.0
2025-12-06T12:59:07.151855,3,68,103011.0,98783.0,67.0,99.0
2025-12-06T12:59:07.151855,3,69,103544.0,99016.0,67.0,99.0
2025-12-06T12:59:07.151855,3,70,103544.0,99016.0,67.0,99.0
2025-12-06T12:59:07.151855,3,71,103544.0,99016.0,67.0,99.0
2025-12-06T12:59:07.157309,3,72,103544.0,99016.0,67.0,99.0
2025-12-06T12:59:07.157309,3,73,103771.0,99089.0,67.0,99.0
2025-12-06T12:59:07.157309,3,74,103771.0,99089.0,67.0,99.0
2025-12-06T12:59:07.157309,3,75,103771.0,99089.0,67.0,99.0
2025-12-06T12:59:07.157309,3,76,103771.0,99089.0,67.0,99.0
2025-12-06T12:59:07.157309,3,77,104525.0,99404.0,67.0,99.0
2025-12-06T12:59:07.157309,3,78,104525.0,99404.0,67.0,99.0
2025-12-06T12:59:07.157309,3,79,104525.0,99404.0,67.0,99.0
2025-12-06T12:59:07.157309,3,80,104525.0,99404.0,67.0,99.0
2025-12-06T12:59:07.157309,3,81,105089.0,99668.0,67.0,99.0
2025-12-06T12:59:07.157309,3,82,105089.0,99668.0,67.0,99.0
2025-12-06T12:59:07.157309,3,83,105089.0,99668.0,67.0,99.0
2025-12-06T12:59:07.157309,3,84,105089.0,99668.0,67.0,99.0
2025-12-06T12:59:07.157309,3,85,105474.0,99818.0,67.0,99.0
2025-12-06T12:59:07.157309,3,86,105474.0,99818.0,67.0,99.0
2025-12-06T12:59:07.157309,3,87,105474.0,99818.0,67.0,99.0
2025-12-06T12:59:07.157309,3,88,105474.0,99818.0,67.0,99.0
2025-12-06T12:59:07.157309,3,89,102882.0,98641.0,67.0,99.0
2025-12-06T12:59:07.157309,3,90,102882.0,98641.0,67.0,99.0
2025-12-06T12:59:07.157309,3,91,102882.0,98641.0,67.0,99.0
2025-12-06T12:59:07.157309,3,92,102882.0,98641.0,67.0,99.0
2025-12-06T12:59:07.157309,3,93,103581.0,98975.0,67.0,99.0
2025-12-06T12:59:07.157309,3,94,103581.0,98975.0,67.0,99.0
2025-12-06T12:59:07.185493,3,95,103581.0,98975.0,67.0,99.0
2025-12-06T12:59:07.219148,3,96,103581.0,98975.0,67.0,99.0
2025-12-06T12:59:07.266169,3,97,103819.0,99073.0,67.0,99.0
2025-12-06T12:59:07.306088,3,98,103819.0,99073.0,67.0,99.0
2025-12-06T12:59:07.347371,3,99,103819.0,99073.0,67.0,99.0
2025-12-06T12:59:07.378950,3,100,103819.0,99073.0,67.0,99.0
2025-12-06T12:59:07.425569,3,101,104465.0,99348.0,67.0,99.0
2025-12-06T12:59:07.458122,3,102,104465.0,99348.0,67.0,99.0
2025-12-06T12:59:07.504991,3,103,104465.0,99348.0,67.0,99.0
2025-12-06T12:59:07.537108,3,104,104465.0,99348.0,67.0,99.0
2025-12-06T12:59:07.585671,3,105,104940.0,99573.0,67.0,99.0
2025-12-06T12:59:07.617068,3,106,104940.0,99573.0,67.0,99.0
2025-12-06T12:59:07.664003,3,107,104940.0,99573.0,67.0,99.0
2025-12-06T12:59:07.705628,3,108,104940.0,99573.0,67.0,99.0
2025-12-06T12:59:07.737272,3,109,105412.0,99782.0,67.0,99.0
2025-12-06T12:59:07.786101,3,110,105412.0,99782.0,67.0,99.0
2025-12-06T12:59:07.822786,3,111,105412.0,99782.0,67.0,99.0
2025-12-06T12:59:07.853141,3,112,105412.0,99782.0,67.0,99.0
2025-12-06T12:59:07.902473,3,113,103012.0,98729.0,67.0,99.0
2025-12-06T12:59:07.937866,3,114,103012.0,98729.0,67.0,99.0
2025-12-06T12:59:07.968968,3,115,103012.0,98729.0,67.0,99.0
2025-12-06T12:59:08.016393,3,116,103012.0,98729.0,67.0,99.0
2025-12-06T12:59:08.063826,3,117,103620.0,99031.0,67.0,99.0
2025-12-06T12:59:08.095402,3,118,103620.0,99031.0,67.0,99.0
2025-12-06T12:59:08.142085,3,119,103620.0,99031.0,67.0,99.0
2025-12-06T12:59:08.174744,3,120,103620.0,99031.0,67.0,99.0
2025-12-06T12:59:08.210942,3,121,103932.0,99185.0,67.0,99.0
2025-12-06T12:59:08.258004,3,122,103932.0,99185.0,67.0,99.0
2025-12-06T12:59:08.289749,3,123,103932.0,99185.0,67.0,99.0
2025-12-06T12:59:08.337806,3,124,103932.0,99185.0,67.0,99.0
2025-12-06T12:59:08.369077,3,125,104517.0,99455.0,67.0,99.0
2025-12-06T12:59:08.417928,3,126,104517.0,99455.0,67.0,99.0
2025-12-06T12:59:08.449144,3,127,104517.0,99455.0,67.0,99.0
2025-12-06T12:59:08.496244,3,128,104517.0,99455.0,67.0,99.0
2025-12-06T12:59:08.528015,3,129,104911.0,99642.0,67.0,99.0
2025-12-06T12:59:08.569583,3,130,104911.0,99642.0,67.0,99.0
2025-12-06T12:59:08.616808,3,131,104911.0,99642.0,67.0,99.0
2025-12-06T12:59:08.648117,3,132,104911.0,99642.0,67.0,99.0
2025-12-06T12:59:08.696086,3,133,103328.0,98969.0,67.0,99.0
2025-12-06T12:59:08.727970,3,134,103328.0,98969.0,67.0,99.0
2025-12-06T12:59:08.775255,3,135,103328.0,98969.0,67.0,99.0
2025-12-06T12:59:08.806526,3,136,103328.0,98969.0,67.0,99.0
2025-12-06T12:59:08.861195,3,137,103084.0,98899.0,67.0,99.0
2025-12-06T12:59:08.885227,3,138,103084.0,98899.0,67.0,99.0
2025-12-06T12:59:08.933438,3,139,103084.0,98899.0,67.0,99.0
2025-12-06T12:59:08.980010,3,140,103084.0,98899.0,67.0,99.0
2025-12-06T12:59:09.011536,3,141,103351.0,99021.0,67.0,99.0
2025-12-06T12:59:09.058412,3,142,103351.0,99021.0,67.0,99.0
2025-12-06T12:59:09.089600,3,143,103351.0,99021.0,67.0,99.0
2025-12-06T12:59:09.137213,3,144,103351.0,99021.0,67.0,99.0
2025-12-06T12:59:12.290306,4,0,104018.0,99340.0,64.0,99.0
2025-12-06T12:59:12.290306,4,1,104018.0,99340.0,64.0,99.0
2025-12-06T12:59:12.290306,4,2,104018.0,99340.0,64.0,99.0
2025-12-06T12:59:12.293301,4,3,104018.0,99340.0,64.0,99.0
2025-12-06T12:59:12.293301,4,4,104436.0,99511.0,64.0,99.0
2025-12-06T12:59:12.293301,4,5,104436.0,99511.0,64.0,99.0
2025-12-06T12:59:12.293301,4,6,104436.0,99511.0,64.0,99.0
2025-12-06T12:59:12.293301,4,7,104436.0,99511.0,64.0,99.0
2025-12-06T12:59:12.293301,4,8,104339.0,99506.0,64.0,99.0
2025-12-06T12:59:12.293301,4,9,104339.0,99506.0,64.0,99.0
2025-12-06T12:59:12.293301,4,10,104339.0,99506.0,64.0,99.0
2025-12-06T12:59:12.293301,4,11,104339.0,99506.0,64.0,99.0
2025-12-06T12:59:12.293301,4,12,102745.0,98845.0,64.0,99.0
2025-12-06T12:59:12.293301,4,13,102745.0,98845.0,64.0,99.0
2025-12-06T12:59:12.301324,4,14,102745.0,98845.0,64.0,99.0
2025-12-06T12:59:12.302435,4,15,102745.0,98845.0,64.0,99.0
2025-12-06T12:59:12.302435,4,16,103126.0,99030.0,64.0,99.0
2025-12-06T12:59:12.303948,4,17,103126.0,99030.0,64.0,99.0
2025-12-06T12:59:12.305060,4,18,103126.0,99030.0,64.0,99.0
2025-12-06T12:59:12.305060,4,19,103126.0,99030.0,64.0,99.0
2025-12-06T12:59:12.305060,4,20,103570.0,99248.0,64.0,99.0
2025-12-06T12:59:12.305060,4,21,103570.0,99248.0,64.0,99.0
2025-12-06T12:59:12.305060,4,22,103570.0,99248.0,64.0,99.0
2025-12-06T12:59:12.305060,4,23,103570.0,99248.0,64.0,99.0
2025-12-06T12:59:12.308171,4,24,104006.0,99422.0,64.0,99.0
2025-12-06T12:59:12.309411,4,25,104006.0,99422.0,64.0,99.0
2025-12-06T12:59:12.310096,4,26,104006.0,99422.0,64.0,99.0
2025-12-06T12:59:12.311470,4,27,104006.0,99422.0,64.0,99.0
2025-12-06T12:59:12.312335,4,28,103495.0,99234.0,64.0,99.0
2025-12-06T12:59:12.313191,4,29,103495.0,99234.0,64.0,99.0
2025-12-06T12:59:12.313191,4,30,103495.0,99234.0,64.0,99.0
2025-12-06T12:59:12.313191,4,31,103495.0,99234.0,64.0,99.0
2025-12-06T12:59:12.313191,4,32,102619.0,98882.0,64.0,99.0
2025-12-06T12:59:12.313191,4,33,102619.0,98882.0,64.0,99.0
2025-12-06T12:59:12.313191,4,34,102619.0,98882.0,64.0,99.0
2025-12-06T12:59:12.313191,4,35,102619.0,98882.0,64.0,99.0
2025-12-06T12:59:12.313191,4,36,102991.0,99044.0,64.0,99.0
2025-12-06T12:59:12.313191,4,37,102991.0,99044.0,64.0,99.0
2025-12-06T12:59:12.313191,4,38,102991.0,99044.0,64.0,99.0
2025-12-06T12:59:12.317433,4,39,102991.0,99044.0,64.0,99.0
2025-12-06T12:59:12.319852,4,40,103614.0,99338.0,64.0,99.0
2025-12-06T12:59:12.320840,4,41,103614.0,99338.0,64.0,99.0
2025-12-06T12:59:12.320840,4,42,103614.0,99338.0,64.0,99.0
2025-12-06T12:59:12.320840,4,43,103614.0,99338.0,64.0,99.0
2025-12-06T12:59:12.320840,4,44,104092.0,99552.0,64.0,99.0
2025-12-06T12:59:12.320840,4,45,104092.0,99552.0,64.0,99.0
2025-12-06T12:59:12.320840,4,46,104092.0,99552.0,64.0,99.0
2025-12-06T12:59:12.320840,4,47,104092.0,99552.0,64.0,99.0
2025-12-06T12:59:12.320840,4,48,102477.0,98873.0,64.0,99.0
2025-12-06T12:59:12.320840,4,49,102477.0,98873.0,64.0,99.0
2025-12-06T12:59:12.320840,4,50,102477.0,98873.0,64.0,99.0
2025-12-06T12:59:12.320840,4,51,102477.0,98873.0,64.0,99.0
2025-12-06T12:59:12.320840,4,52,102561.0,98928.0,64.0,99.0
2025-12-06T12:59:12.320840,4,53,102561.0,98928.0,64.0,99.0
2025-12-06T12:59:12.320840,4,54,102561.0,98928.0,64.0,99.0
2025-12-06T12:59:12.320840,4,55,102561.0,98928.0,64.0,99.0
2025-12-06T12:59:12.320840,4,56,102822.0,99040.0,64.0,99.0
2025-12-06T12:59:12.329001,4,57,102822.0,99040.0,64.0,99.0
2025-12-06T12:59:12.329001,4,58,102822.0,99040.0,64.0,99.0
2025-12-06T12:59:12.329001,4,59,102822.0,99040.0,64.0,99.0
2025-12-06T12:59:12.329001,4,60,103449.0,99296.0,64.0,99.0
2025-12-06T12:59:12.329001,4,61,103449.0,99296.0,64.0,99.0
2025-12-06T12:59:12.329001,4,62,103449.0,99296.0,64.0,99.0
2025-12-06T12:59:12.329001,4,63,103449.0,99296.0,64.0,99.0
2025-12-06T12:59:12.329001,4,64,103919.0,99509.0,64.0,99.0
2025-12-06T12:59:12.329001,4,65,103919.0,99509.0,64.0,99.0
2025-12-06T12:59:12.329001,4,66,103919.0,99509.0,64.0,99.0
2025-12-06T12:59:12.329001,4,67,103919.0,99509.0,64.0,99.0
2025-12-06T12:59:12.329001,4,68,101714.0,98561.0,64.0,99.0
2025-12-06T12:59:12.329001,4,69,101714.0,98561.0,64.0,99.0
2025-12-06T12:59:12.329001,4,70,101714.0,98561.0,64.0,99.0
2025-12-06T12:59:12.335276,4,71,101714.0,98561.0,64.0,99.0
2025-12-06T12:59:12.335276,4,72,102054.0,98683.0,64.0,99.0
2025-12-06T12:59:12.335276,4,73,102054.0,98683.0,64.0,99.0
2025-12-06T12:59:12.335276,4,74,102054.0,98683.0,64.0,99.0
2025-12-06T12:59:12.335276,4,75,102054.0,98683.0,64.0,99.0
2025-12-06T12:59:12.335276,4,76,102414.0,98830.0,64.0,99.0
2025-12-06T12:59:12.335276,4,77,102414.0,98830.0,64.0,99.0
2025-12-06T12:59:12.339067,4,78,102414.0,98830.0,64.0,99.0
2025-12-06T12:59:12.339067,4,79,102414.0,98830.0,64.0,99.0
2025-12-06T12:59:12.361368,4,80,103189.0,99158.0,64.0,99.0
2025-12-06T12:59:12.401716,4,81,103189.0,99158.0,64.0,99.0
2025-12-06T12:59:12.434603,4,82,103189.0,99158.0,64.0,99.0
2025-12-06T12:59:12.481848,4,83,103189.0,99158.0,64.0,99.0
2025-12-06T12:59:12.513202,4,84,103678.0,99360.0,64.0,99.0
2025-12-06T12:59:12.560002,4,85,103678.0,99360.0,64.0,99.0
2025-12-06T12:59:12.596819,4,86,103678.0,99360.0,64.0,99.0
2025-12-06T12:59:12.643701,4,87,103678.0,99360.0,64.0,99.0
2025-12-06T12:59:12.674930,4,88,102351.0,98812.0,64.0,99.0
2025-12-06T12:59:12.723094,4,89,102351.0,98812.0,64.0,99.0
2025-12-06T12:59:12.754357,4,90,102351.0,98812.0,64.0,99.0
2025-12-06T12:59:12.801050,4,91,102351.0,98812.0,64.0,99.0
2025-12-06T12:59:12.833037,4,92,101482.0,98399.0,64.0,99.0
2025-12-06T12:59:12.880999,4,93,101482.0,98399.0,64.0,99.0
2025-12-06T12:59:12.924700,4,94,101482.0,98399.0,64.0,99.0
2025-12-06T12:59:12.958671,4,95,101482.0,98399.0,64.0,99.0
2025-12-06T12:59:12.989919,4,96,101976.0,98596.0,64.0,99.0
2025-12-06T12:59:13.037556,4,97,101976.0,98596.0,64.0,99.0
2025-12-06T12:59:13.085739,4,98,101976.0,98596.0,64.0,99.0
2025-12-06T12:59:13.117500,4,99,101976.0,98596.0,64.0,99.0
2025-12-06T12:59:13.149644,4,100,102660.0,98873.0,64.0,99.0
2025-12-06T12:59:13.197962,4,101,102660.0,98873.0,64.0,99.0
2025-12-06T12:59:13.229202,4,102,102660.0,98873.0,64.0,99.0
2025-12-06T12:59:13.277922,4,103,102660.0,98873.0,64.0,99.0
2025-12-06T12:59:13.308947,4,104,103130.0,99066.0,64.0,99.0
2025-12-06T12:59:13.356762,4,105,103130.0,99066.0,64.0,99.0
2025-12-06T12:59:13.389197,4,106,103130.0,99066.0,64.0,99.0
2025-12-06T12:59:13.444305,4,107,103130.0,99066.0,64.0,99.0
2025-12-06T12:59:13.471207,4,108,103566.0,99263.0,64.0,99.0
2025-12-06T12:59:13.520155,4,109,103566.0,99263.0,64.0,99.0
2025-12-06T12:59:13.551514,4,110,103566.0,99263.0,64.0,99.0
2025-12-06T12:59:13.598754,4,111,103566.0,99263.0,64.0,99.0
2025-12-06T12:59:13.634525,4,112,101728.0,98439.0,64.0,99.0
2025-12-06T12:59:13.682198,4,113,101728.0,98439.0,64.0,99.0
2025-12-06T12:59:13.713687,4,114,101728.0,98439.0,64.0,99.0
2025-12-06T12:59:13.749263,4,115,101728.0,98439.0,64.0,99.0
2025-12-06T12:59:13.796178,4,116,101325.0,98232.0,64.0,99.0
2025-12-06T12:59:13.827418,4,117,101325.0,98232.0,64.0,99.0
2025-12-06T12:59:13.875692,4,118,101325.0,98232.0,64.0,99.0
2025-12-06T12:59:13.907144,4,119,101325.0,98232.0,64.0,99.0
2025-12-06T12:59:13.961396,4,120,101779.0,98414.0,64.0,99.0
2025-12-06T12:59:13.998841,4,121,101779.0,98414.0,64.0,99.0
2025-12-06T12:59:14.030386,4,122,101779.0,98414.0,64.0,99.0
2025-12-06T12:59:14.077349,4,123,101779.0,98414.0,64.0,99.0
2025-12-06T12:59:14.109482,4,124,102470.0,98705.0,64.0,99.0
2025-12-06T12:59:14.160071,4,125,102470.0,98705.0,64.0,99.0
2025-12-06T12:59:14.190641,4,126,102470.0,98705.0,64.0,99.0
2025-12-06T12:59:14.237521,4,127,102470.0,98705.0,64.0,99.0
2025-12-06T12:59:14.268689,4,128,102974.0,98912.0,64.0,99.0
2025-12-06T12:59:14.316764,4,129,102974.0,98912.0,64.0,99.0
2025-12-06T12:59:16.869085,5,0,102974.0,98912.0,70.0,98.0
2025-12-06T12:59:16.869085,5,1,102974.0,98912.0,70.0,98.0
2025-12-06T12:59:16.869085,5,2,103458.0,99138.0,70.0,98.0
2025-12-06T12:59:16.869085,5,3,103458.0,99138.0,70.0,98.0
2025-12-06T12:59:16.869085,5,4,103458.0,99138.0,70.0,98.0
2025-12-06T12:59:16.869085,5,5,103458.0,99138.0,70.0,98.0
2025-12-06T12:59:16.869085,5,6,103022.0,98941.0,70.0,98.0
2025-12-06T12:59:16.869085,5,7,103022.0,98941.0,70.0,98.0
2025-12-06T12:59:16.869085,5,8,103022.0,98941.0,70.0,98.0
2025-12-06T12:59:16.869085,5,9,103022.0,98941.0,70.0,98.0
2025-12-06T12:59:16.869085,5,10,100961.0,97974.0,70.0,98.0
2025-12-06T12:59:16.869085,5,11,100961.0,97974.0,70.0,98.0
2025-12-06T12:59:16.869085,5,12,100961.0,97974.0,70.0,98.0
2025-12-06T12:59:16.869085,5,13,100961.0,97974.0,70.0,98.0
2025-12-06T12:59:16.869085,5,14,101328.0,98084.0,70.0,98.0
2025-12-06T12:59:16.869085,5,15,101328.0,98084.0,70.0,98.0
2025-12-06T12:59:16.869085,5,16,101328.0,98084.0,70.0,98.0
2025-12-06T12:59:16.869085,5,17,101328.0,98084.0,70.0,98.0
2025-12-06T12:59:16.869085,5,18,101884.0,98326.0,70.0,98.0
2025-12-06T12:59:16.869085,5,19,101884.0,98326.0,70.0,98.0
2025-12-06T12:59:16.869085,5,20,101884.0,98326.0,70.0,98.0
2025-12-06T12:59:16.869085,5,21,101884.0,98326.0,70.0,98.0
2025-12-06T12:59:16.869085,5,22,102443.0,98554.0,70.0,98.0
2025-12-06T12:59:16.869085,5,23,102443.0,98554.0,70.0,98.0
2025-12-06T12:59:16.869085,5,24,102443.0,98554.0,70.0,98.0
2025-12-06T12:59:16.869085,5,25,102443.0,98554.0,70.0,98.0
2025-12-06T12:59:16.869085,5,26,102983.0,98802.0,70.0,98.0
2025-12-06T12:59:16.869085,5,27,102983.0,98802.0,70.0,98.0
2025-12-06T12:59:16.869085,5,28,102983.0,98802.0,70.0,98.0
2025-12-06T12:59:16.869085,5,29,102983.0,98802.0,70.0,98.0
2025-12-06T12:59:16.869085,5,30,103068.0,98795.0,70.0,98.0
2025-12-06T12:59:16.869085,5,31,103068.0,98795.0,70.0,98.0
2025-12-06T12:59:16.869085,5,32,103068.0,98795.0,70.0,98.0
2025-12-06T12:59:16.869085,5,33,103068.0,98795.0,70.0,98.0
2025-12-06T12:59:16.884777,5,34,100671.0,97683.0,70.0,98.0
2025-12-06T12:59:16.885399,5,35,100671.0,97683.0,70.0,98.0
2025-12-06T12:59:16.885911,5,36,100671.0,97683.0,70.0,98.0
2025-12-06T12:59:16.885911,5,37,100671.0,97683.0,70.0,98.0
2025-12-06T12:59:16.886995,5,38,101159.0,97897.0,70.0,98.0
2025-12-06T12:59:16.886995,5,39,101159.0,97897.0,70.0,98.0
2025-12-06T12:59:16.886995,5,40,101159.0,97897.0,70.0,98.0
2025-12-06T12:59:16.886995,5,41,101159.0,97897.0,70.0,98.0
2025-12-06T12:59:16.886995,5,42,101644.0,98097.0,70.0,98.0
2025-12-06T12:59:16.886995,5,43,101644.0,98097.0,70.0,98.0
2025-12-06T12:59:16.886995,5,44,101644.0,98097.0,70.0,98.0
2025-12-06T12:59:16.886995,5,45,101644.0,98097.0,70.0,98.0
2025-12-06T12:59:16.886995,5,46,102302.0,98374.0,70.0,98.0
2025-12-06T12:59:16.886995,5,47,102302.0,98374.0,70.0,98.0
2025-12-06T12:59:16.886995,5,48,102302.0,98374.0,70.0,98.0
2025-12-06T12:59:16.886995,5,49,102302.0,98374.0,70.0,98.0
2025-12-06T12:59:16.886995,5,50,102870.0,98637.0,70.0,98.0
2025-12-06T12:59:16.886995,5,51,102870.0,98637.0,70.0,98.0
2025-12-06T12:59:16.886995,5,52,102870.0,98637.0,70.0,98.0
2025-12-06T12:59:16.886995,5,53,102870.0,98637.0,70.0,98.0
2025-12-06T12:59:16.886995,5,54,103388.0,98861.0,70.0,98.0
2025-12-06T12:59:16.886995,5,55,103388.0,98861.0,70.0,98.0
2025-12-06T12:59:16.886995,5,56,103388.0,98861.0,70.0,98.0
2025-12-06T12:59:16.886995,5,57,103388.0,98861.0,70.0,98.0
2025-12-06T12:59:16.886995,5,58,100574.0,97581.0,70.0,98.0
2025-12-06T12:59:16.895141,5,59,100574.0,97581.0,70.0,98.0
2025-12-06T12:59:16.895141,5,60,100574.0,97581.0,70.0,98.0
2025-12-06T12:59:16.895141,5,61,100574.0,97581.0,70.0,98.0
2025-12-06T12:59:16.897320,5,62,100744.0,97606.0,70.0,98.0
2025-12-06T12:59:16.897320,5,63,100744.0,97606.0,70.0,98.0
2025-12-06T12:59:16.909295,5,64,100744.0,97606.0,70.0,98.0
2025-12-06T12:59:16.950932,5,65,100744.0,97606.0,70.0,98.0
2025-12-06T12:59:16.983490,5,66,101220.0,97833.0,70.0,98.0
2025-12-06T12:59:17.029356,5,67,101220.0,97833.0,70.0,98.0
2025-12-06T12:59:17.067342,5,68,101220.0,97833.0,70.0,98.0
2025-12-06T12:59:17.098162,5,69,101220.0,97833.0,70.0,98.0
2025-12-06T12:59:17.145737,5,70,102024.0,98213.0,70.0,98.0
2025-12-06T12:59:17.176980,5,71,102024.0,98213.0,70.0,98.0
2025-12-06T12:59:17.223847,5,72,102024.0,98213.0,70.0,98.0
2025-12-06T12:59:17.255105,5,73,102024.0,98213.0,70.0,98.0
2025-12-06T12:59:17.301707,5,74,102651.0,98517.0,70.0,98.0
2025-12-06T12:59:17.335428,5,75,102651.0,98517.0,70.0,98.0
2025-12-06T12:59:17.383785,5,76,102651.0,98517.0,70.0,98.0
2025-12-06T12:59:17.415545,5,77,102651.0,98517.0,70.0,98.0
2025-12-06T12:59:17.462366,5,78,103210.0,98759.0,70.0,98.0
2025-12-06T12:59:17.494593,5,79,103210.0,98759.0,70.0,98.0
2025-12-06T12:59:17.547251,5,80,103210.0,98759.0,70.0,98.0
2025-12-06T12:59:17.579126,5,81,103210.0,98759.0,70.0,98.0
2025-12-06T12:59:17.621145,5,82,101305.0,97933.0,70.0,98.0
2025-12-06T12:59:17.668333,5,83,101305.0,97933.0,70.0,98.0
2025-12-06T12:59:17.699918,5,84,101305.0,97933.0,70.0,98.0
2025-12-06T12:59:17.746458,5,85,101305.0,97933.0,70.0,98.0
2025-12-06T12:59:17.778082,5,86,100556.0,97579.0,70.0,98.0
2025-12-06T12:59:17.825577,5,87,100556.0,97579.0,70.0,98.0
2025-12-06T12:59:17.866715,5,88,100556.0,97579.0,70.0,98.0
2025-12-06T12:59:17.900143,5,89,100556.0,97579.0,70.0,98.0
2025-12-06T12:59:17.931840,5,90,101150.0,97852.0,70.0,98.0
2025-12-06T12:59:17.984466,5,91,101150.0,97852.0,70.0,98.0
2025-12-06T12:59:18.016432,5,92,101150.0,97852.0,70.0,98.0
2025-12-06T12:59:18.061867,5,93,101150.0,97852.0,70.0,98.0
2025-12-06T12:59:18.093380,5,94,101972.0,98235.0,70.0,98.0
2025-12-06T12:59:18.140231,5,95,101972.0,98235.0,70.0,98.0
2025-12-06T12:59:18.171468,5,96,101972.0,98235.0,70.0,98.0
2025-12-06T12:59:18.219553,5,97,101972.0,98235.0,70.0,98.0
2025-12-06T12:59:18.250414,5,98,102612.0,98543.0,70.0,98.0
2025-12-06T12:59:18.297655,5,99,102612.0,98543.0,70.0,98.0
2025-12-06T12:59:18.344166,5,100,102612.0,98543.0,70.0,98.0
2025-12-06T12:59:18.375834,5,101,102612.0,98543.0,70.0,98.0
2025-12-06T12:59:18.416582,5,102,103233.0,98839.0,70.0,98.0
2025-12-06T12:59:18.457300,5,103,103233.0,98839.0,70.0,98.0
2025-12-06T12:59:18.488751,5,104,103233.0,98839.0,70.0,98.0
2025-12-06T12:59:18.537119,5,105,103233.0,98839.0,70.0,98.0
2025-12-06T12:59:18.573865,5,106,103424.0,98946.0,70.0,98.0
2025-12-06T12:59:18.621335,5,107,103424.0,98946.0,70.0,98.0
2025-12-06T12:59:18.653281,5,108,103424.0,98946.0,70.0,98.0
2025-12-06T12:59:18.701264,5,109,103424.0,98946.0,70.0,98.0
2025-12-06T12:59:18.732797,5,110,100900.0,97865.0,70.0,98.0
2025-12-06T12:59:18.779688,5,111,100900.0,97865.0,70.0,98.0
2025-12-06T12:59:18.810944,5,112,100900.0,97865.0,70.0,98.0
2025-12-06T12:59:18.857801,5,113,100900.0,97865.0,70.0,98.0
2025-12-06T12:59:18.897702,5,114,101491.0,98142.0,70.0,98.0
2025-12-06T12:59:22.877592,6,0,101491.0,98142.0,63.0,99.0
2025-12-06T12:59:22.877592,6,1,101491.0,98142.0,63.0,99.0
2025-12-06T12:59:22.877592,6,2,101491.0,98142.0,63.0,99.0
2025-12-06T12:59:22.880111,6,3,102031.0,98398.0,63.0,99.0
2025-12-06T12:59:22.880111,6,4,102031.0,98398.0,63.0,99.0
2025-12-06T12:59:22.880111,6,5,102031.0,98398.0,63.0,99.0
2025-12-06T12:59:22.881887,6,6,102031.0,98398.0,63.0,99.0
2025-12-06T12:59:22.881887,6,7,102683.0,98711.0,63.0,99.0
2025-12-06T12:59:22.881887,6,8,102683.0,98711.0,63.0,99.0
2025-12-06T12:59:22.881887,6,9,102683.0,98711.0,63.0,99.0
2025-12-06T12:59:22.881887,6,10,102683.0,98711.0,63.0,99.0
2025-12-06T12:59:22.881887,6,11,103134.0,98912.0,63.0,99.0
2025-12-06T12:59:22.881887,6,12,103134.0,98912.0,63.0,99.0
2025-12-06T12:59:22.881887,6,13,103134.0,98912.0,63.0,99.0
2025-12-06T12:59:22.881887,6,14,103134.0,98912.0,63.0,99.0
2025-12-06T12:59:22.881887,6,15,103692.0,99145.0,63.0,99.0
2025-12-06T12:59:22.881887,6,16,103692.0,99145.0,63.0,99.0
2025-12-06T12:59:22.881887,6,17,103692.0,99145.0,63.0,99.0
2025-12-06T12:59:22.881887,6,18,103692.0,99145.0,63.0,99.0
2025-12-06T12:59:22.881887,6,19,101016.0,98030.0,63.0,99.0
2025-12-06T12:59:22.881887,6,20,101016.0,98030.0,63.0,99.0
2025-12-06T12:59:22.881887,6,21,101016.0,98030.0,63.0,99.0
2025-12-06T12:59:22.881887,6,22,101016.0,98030.0,63.0,99.0
2025-12-06T12:59:22.881887,6,23,101601.0,98323.0,63.0,99.0
2025-12-06T12:59:22.881887,6,24,101601.0,98323.0,63.0,99.0
2025-12-06T12:59:22.881887,6,25,101601.0,98323.0,63.0,99.0
2025-12-06T12:59:22.890764,6,26,101601.0,98323.0,63.0,99.0
2025-12-06T12:59:22.891102,6,27,101844.0,98401.0,63.0,99.0
2025-12-06T12:59:22.891102,6,28,101844.0,98401.0,63.0,99.0
2025-12-06T12:59:22.891102,6,29,101844.0,98401.0,63.0,99.0
2025-12-06T12:59:22.893021,6,30,101844.0,98401.0,63.0,99.0
2025-12-06T12:59:22.893251,6,31,102518.0,98716.0,63.0,99.0
2025-12-06T12:59:22.893857,6,32,102518.0,98716.0,63.0,99.0
2025-12-06T12:59:22.893857,6,33,102518.0,98716.0,63.0,99.0
2025-12-06T12:59:22.893857,6,34,102518.0,98716.0,63.0,99.0
2025-12-06T12:59:22.893857,6,35,103010.0,98929.0,63.0,99.0
2025-12-06T12:59:22.893857,6,36,103010.0,98929.0,63.0,99.0
2025-12-06T12:59:22.896070,6,37,103010.0,98929.0,63.0,99.0
2025-12-06T12:59:22.896315,6,38,103010.0,98929.0,63.0,99.0
2025-12-06T12:59:22.896933,6,39,103576.0,99178.0,63.0,99.0
2025-12-06T12:59:22.897768,6,40,103576.0,99178.0,63.0,99.0
2025-12-06T12:59:22.899501,6,41,103576.0,99178.0,63.0,99.0
2025-12-06T12:59:22.900047,6,42,103576.0,99178.0,63.0,99.0
2025-12-06T12:59:22.900776,6,43,100992.0,98092.0,63.0,99.0
2025-12-06T12:59:22.900776,6,44,100992.0,98092.0,63.0,99.0
2025-12-06T12:59:22.904577,6,45,100992.0,98092.0,63.0,99.0
2025-12-06T12:59:22.904577,6,46,100992.0,98092.0,63.0,99.0
2025-12-06T12:59:22.905662,6,47,101636.0,98372.0,63.0,99.0
2025-12-06T12:59:22.905662,6,48,101636.0,98372.0,63.0,99.0
2025-12-06T12:59:22.905662,6,49,101636.0,98372.0,63.0,99.0
2025-12-06T12:59:22.905662,6,50,101636.0,98372.0,63.0,99.0
2025-12-06T12:59:22.905662,6,51,101970.0,98536.0,63.0,99.0
2025-12-06T12:59:22.905662,6,52,101970.0,98536.0,63.0,99.0
2025-12-06T12:59:22.905662,6,53,101970.0,98536.0,63.0,99.0
2025-12-06T12:59:22.905662,6,54,101970.0,98536.0,63.0,99.0
2025-12-06T12:59:22.905662,6,55,102638.0,98831.0,63.0,99.0
2025-12-06T12:59:22.905662,6,56,102638.0,98831.0,63.0,99.0
2025-12-06T12:59:22.905662,6,57,102638.0,98831.0,63.0,99.0
2025-12-06T12:59:22.905662,6,58,102638.0,98831.0,63.0,99.0
2025-12-06T12:59:22.905662,6,59,103121.0,99044.0,63.0,99.0
2025-12-06T12:59:22.905662,6,60,103121.0,99044.0,63.0,99.0
2025-12-06T12:59:22.905662,6,61,103121.0,99044.0,63.0,99.0
2025-12-06T12:59:22.905662,6,62,103121.0,99044.0,63.0,99.0
2025-12-06T12:59:22.905662,6,63,102837.0,98941.0,63.0,99.0
2025-12-06T12:59:22.905662,6,64,102837.0,98941.0,63.0,99.0
2025-12-06T12:59:22.905662,6,65,102837.0,98941.0,63.0,99.0
2025-12-06T12:59:22.913862,6,66,102837.0,98941.0,63.0,99.0
2025-12-06T12:59:22.913862,6,67,101110.0,98187.0,63.0,99.0
2025-12-06T12:59:22.915187,6,68,101110.0,98187.0,63.0,99.0
2025-12-06T12:59:22.915187,6,69,101110.0,98187.0,63.0,99.0
2025-12-06T12:59:22.915187,6,70,101110.0,98187.0,63.0,99.0
2025-12-06T12:59:22.915187,6,71,101397.0,98321.0,63.0,99.0
2025-12-06T12:59:22.915187,6,72,101397.0,98321.0,63.0,99.0
2025-12-06T12:59:22.915187,6,73,101397.0,98321.0,63.0,99.0
2025-12-06T12:59:22.915187,6,74,101397.0,98321.0,63.0,99.0
2025-12-06T12:59:22.915187,6,75,101975.0,98564.0,63.0,99.0
2025-12-06T12:59:22.915187,6,76,101975.0,98564.0,63.0,99.0
2025-12-06T12:59:22.915187,6,77,101975.0,98564.0,63.0,99.0
2025-12-06T12:59:22.921155,6,78,101975.0,98564.0,63.0,99.0
2025-12-06T12:59:22.921155,6,79,102710.0,98903.0,63.0,99.0
2025-12-06T12:59:22.921155,6,80,102710.0,98903.0,63.0,99.0
2025-12-06T12:59:22.921155,6,81,102710.0,98903.0,63.0,99.0
2025-12-06T12:59:22.921155,6,82,102710.0,98903.0,63.0,99.0
2025-12-06T12:59:22.921155,6,83,103240.0,99132.0,63.0,99.0
2025-12-06T12:59:22.921155,6,84,103240.0,99132.0,63.0,99.0
2025-12-06T12:59:22.921155,6,85,103240.0,99132.0,63.0,99.0
2025-12-06T12:59:22.921155,6,86,103240.0,99132.0,63.0,99.0
2025-12-06T12:59:22.921155,6,87,100871.0,98127.0,63.0,99.0
2025-12-06T12:59:22.921155,6,88,100871.0,98127.0,63.0,99.0
2025-12-06T12:59:22.921155,6,89,100871.0,98127.0,63.0,99.0
2025-12-06T12:59:22.921155,6,90,100871.0,98127.0,63.0,99.0
2025-12-06T12:59:22.921155,6,91,101588.0,98411.0,63.0,99.0
2025-12-06T12:59:22.921155,6,92,101588.0,98411.0,63.0,99.0
2025-12-06T12:59:22.921155,6,93,101588.0,98411.0,63.0,99.0
2025-12-06T12:59:22.921155,6,94,101588.0,98411.0,63.0,99.0
2025-12-06T12:59:22.921155,6,95,101841.0,98504.0,63.0,99.0
2025-12-06T12:59:22.921155,6,96,101841.0,98504.0,63.0,99.0
2025-12-06T12:59:22.921155,6,97,101841.0,98504.0,63.0,99.0
2025-12-06T12:59:22.921155,6,98,101841.0,98504.0,63.0,99.0
2025-12-06T12:59:22.921155,6,99,102556.0,98825.0,63.0,99.0
2025-12-06T12:59:22.921155,6,100,102556.0,98825.0,63.0,99.0
2025-12-06T12:59:22.966729,6,101,102556.0,98825.0,63.0,99.0
2025-12-06T12:59:23.002808,6,102,102556.0,98825.0,63.0,99.0
2025-12-06T12:59:23.036171,6,103,103025.0,99022.0,63.0,99.0
2025-12-06T12:59:23.082988,6,104,103025.0,99022.0,63.0,99.0
2025-12-06T12:59:23.114651,6,105,103025.0,99022.0,63.0,99.0
2025-12-06T12:59:23.166810,6,106,103025.0,99022.0,63.0,99.0
2025-12-06T12:59:23.193296,6,107,101223.0,98230.0,63.0,99.0
2025-12-06T12:59:23.240158,6,108,101223.0,98230.0,63.0,99.0
2025-12-06T12:59:23.286665,6,109,101223.0,98230.0,63.0,99.0
2025-12-06T12:59:23.324401,6,110,101223.0,98230.0,63.0,99.0
2025-12-06T12:59:23.356777,6,111,101837.0,98491.0,63.0,99.0
2025-12-06T12:59:23.403644,6,112,101837.0,98491.0,63.0,99.0
2025-12-06T12:59:23.434850,6,113,101837.0,98491.0,63.0,99.0
2025-12-06T12:59:23.482548,6,114,101837.0,98491.0,63.0,99.0
2025-12-06T12:59:23.514205,6,115,102311.0,98700.0,63.0,99.0
2025-12-06T12:59:23.565850,6,116,102311.0,98700.0,63.0,99.0
2025-12-06T12:59:23.598952,6,117,102311.0,98700.0,63.0,99.0
2025-12-06T12:59:23.632041,6,118,102311.0,98700.0,63.0,99.0
2025-12-06T12:59:23.683059,6,119,102916.0,98953.0,63.0,99.0
2025-12-06T12:59:23.723856,6,120,102916.0,98953.0,63.0,99.0
2025-12-06T12:59:23.759309,6,121,102916.0,98953.0,63.0,99.0
2025-12-06T12:59:23.790546,6,122,102916.0,98953.0,63.0,99.0
2025-12-06T12:59:23.837428,6,123,101513.0,98368.0,63.0,99.0
2025-12-06T12:59:23.871165,6,124,101513.0,98368.0,63.0,99.0
2025-12-06T12:59:23.919123,6,125,101513.0,98368.0,63.0,99.0
2025-12-06T12:59:23.950701,6,126,101513.0,98368.0,63.0,99.0
2025-12-06T12:59:23.997817,6,127,101736.0,98432.0,63.0,99.0
2025-12-06T12:59:24.029052,6,128,101736.0,98432.0,63.0,99.0
2025-12-06T12:59:24.075954,6,129,101736.0,98432.0,63.0,99.0
2025-12-06T12:59:24.116208,6,130,101736.0,98432.0,63.0,99.0
2025-12-06T12:59:24.149039,6,131,102019.0,98565.0,63.0,99.0
2025-12-06T12:59:24.204225,6,132,102019.0,98565.0,63.0,99.0
2025-12-06T12:59:24.235669,6,133,102019.0,98565.0,63.0,99.0
2025-12-06T12:59:24.282371,6,134,102019.0,98565.0,63.0,99.0
2025-12-06T12:59:24.314818,6,135,102861.0,98918.0,63.0,99.0
2025-12-06T12:59:24.361712,6,136,102861.0,98918.0,63.0,99.0
2025-12-06T12:59:24.393678,6,137,102861.0,98918.0,63.0,99.0
2025-12-06T12:59:24.441585,6,138,102861.0,98918.0,63.0,99.0
2025-12-06T12:59:24.473228,6,139,103340.0,99136.0,63.0,99.0
2025-12-06T12:59:24.520128,6,140,103340.0,99136.0,63.0,99.0
2025-12-06T12:59:24.552406,6,141,103340.0,99136.0,63.0,99.0
2025-12-06T12:59:24.598856,6,142,103340.0,99136.0,63.0,99.0
2025-12-06T12:59:24.640053,6,143,101208.0,98215.0,63.0,99.0
2025-12-06T12:59:24.681724,6,144,101208.0,98215.0,63.0,99.0
2025-12-06T12:59:24.715299,6,145,101208.0,98215.0,63.0,99.0
2025-12-06T12:59:24.746960,6,146,101208.0,98215.0,63.0,99.0
2025-12-06T12:59:24.793806,6,147,101917.0,98489.0,63.0,99.0
2025-12-06T12:59:24.840320,6,148,101917.0,98489.0,63.0,99.0
2025-12-06T12:59:24.871938,6,149,101917.0,98489.0,63.0,99.0
2025-12-06T12:59:24.918389,6,150,101917.0,98489.0,63.0,99.0
2025-12-06T12:59:28.158365,7,0,102321.0,98643.0,68.0,99.0
2025-12-06T12:59:28.158365,7,1,102321.0,98643.0,68.0,99.0
2025-12-06T12:59:28.158365,7,2,102321.0,98643.0,68.0,99.0
2025-12-06T12:59:28.158365,7,3,102321.0,98643.0,68.0,99.0
2025-12-06T12:59:28.161739,7,4,102960.0,98900.0,68.0,99.0
2025-12-06T12:59:28.161739,7,5,102960.0,98900.0,68.0,99.0
2025-12-06T12:59:28.161739,7,6,102960.0,98900.0,68.0,99.0
2025-12-06T12:59:28.161739,7,7,102960.0,98900.0,68.0,99.0
2025-12-06T12:59:28.161739,7,8,102546.0,98727.0,68.0,99.0
2025-12-06T12:59:28.164431,7,9,102546.0,98727.0,68.0,99.0
2025-12-06T12:59:28.164431,7,10,102546.0,98727.0,68.0,99.0
2025-12-06T12:59:28.164431,7,11,102546.0,98727.0,68.0,99.0
2025-12-06T12:59:28.164431,7,12,101233.0,98118.0,68.0,99.0
2025-12-06T12:59:28.164431,7,13,101233.0,98118.0,68.0,99.0
2025-12-06T12:59:28.164431,7,14,101233.0,98118.0,68.0,99.0
2025-12-06T12:59:28.164431,7,15,101233.0,98118.0,68.0,99.0
2025-12-06T12:59:28.164431,7,16,101773.0,98332.0,68.0,99.0
2025-12-06T12:59:28.164431,7,17,101773.0,98332.0,68.0,99.0
2025-12-06T12:59:28.164431,7,18,101773.0,98332.0,68.0,99.0
2025-12-06T12:59:28.164431,7,19,101773.0,98332.0,68.0,99.0
2025-12-06T12:59:28.164431,7,20,102416.0,98598.0,68.0,99.0
2025-12-06T12:59:28.164431,7,21,102416.0,98598.0,68.0,99.0
2025-12-06T12:59:28.164431,7,22,102416.0,98598.0,68.0,99.0
2025-12-06T12:59:28.164431,7,23,102416.0,98598.0,68.0,99.0
2025-12-06T12:59:28.172482,7,24,102929.0,98810.0,68.0,99.0
2025-12-06T12:59:28.173736,7,25,102929.0,98810.0,68.0,99.0
2025-12-06T12:59:28.173770,7,26,102929.0,98810.0,68.0,99.0
2025-12-06T12:59:28.173770,7,27,102929.0,98810.0,68.0,99.0
2025-12-06T12:59:28.175341,7,28,103343.0,99002.0,68.0,99.0
2025-12-06T12:59:28.175983,7,29,103343.0,99002.0,68.0,99.0
2025-12-06T12:59:28.176579,7,30,103343.0,99002.0,68.0,99.0
2025-12-06T12:59:28.176579,7,31,103343.0,99002.0,68.0,99.0
2025-12-06T12:59:28.176579,7,32,101114.0,97981.0,68.0,99.0
2025-12-06T12:59:28.176579,7,33,101114.0,97981.0,68.0,99.0
2025-12-06T12:59:28.176579,7,34,101114.0,97981.0,68.0,99.0
2025-12-06T12:59:28.176579,7,35,101114.0,97981.0,68.0,99.0
2025-12-06T12:59:28.178934,7,36,101688.0,98246.0,68.0,99.0
2025-12-06T12:59:28.180244,7,37,101688.0,98246.0,68.0,99.0
2025-12-06T12:59:28.181555,7,38,101688.0,98246.0,68.0,99.0
2025-12-06T12:59:28.182086,7,39,101688.0,98246.0,68.0,99.0
2025-12-06T12:59:28.183182,7,40,102141.0,98412.0,68.0,99.0
2025-12-06T12:59:28.183182,7,41,102141.0,98412.0,68.0,99.0
2025-12-06T12:59:28.184859,7,42,102141.0,98412.0,68.0,99.0
2025-12-06T12:59:28.184859,7,43,102141.0,98412.0,68.0,99.0
2025-12-06T12:59:28.184859,7,44,102716.0,98658.0,68.0,99.0
2025-12-06T12:59:28.184859,7,45,102716.0,98658.0,68.0,99.0
2025-12-06T12:59:28.184859,7,46,102716.0,98658.0,68.0,99.0
2025-12-06T12:59:28.184859,7,47,102716.0,98658.0,68.0,99.0
2025-12-06T12:59:28.184859,7,48,103205.0,98880.0,68.0,99.0
2025-12-06T12:59:28.184859,7,49,103205.0,98880.0,68.0,99.0
2025-12-06T12:59:28.184859,7,50,103205.0,98880.0,68.0,99.0
2025-12-06T12:59:28.184859,7,51,103205.0,98880.0,68.0,99.0
2025-12-06T12:59:28.184859,7,52,102882.0,98741.0,68.0,99.0
2025-12-06T12:59:28.184859,7,53,102882.0,98741.0,68.0,99.0
2025-12-06T12:59:28.184859,7,54,102882.0,98741.0,68.0,99.0
2025-12-06T12:59:28.184859,7,55,102882.0,98741.0,68.0,99.0
2025-12-06T12:59:28.184859,7,56,101189.0,97956.0,68.0,99.0
2025-12-06T12:59:28.184859,7,57,101189.0,97956.0,68.0,99.0
2025-12-06T12:59:28.184859,7,58,101189.0,97956.0,68.0,99.0
2025-12-06T12:59:28.193152,7,59,101189.0,97956.0,68.0,99.0
2025-12-06T12:59:28.193152,7,60,101683.0,98150.0,68.0,99.0
2025-12-06T12:59:28.193152,7,61,101683.0,98150.0,68.0,99.0
2025-12-06T12:59:28.193152,7,62,101683.0,98150.0,68.0,99.0
2025-12-06T12:59:28.193152,7,63,101683.0,98150.0,68.0,99.0
2025-12-06T12:59:28.193152,7,64,102314.0,98414.0,68.0,99.0
2025-12-06T12:59:28.193152,7,65,102314.0,98414.0,68.0,99.0
2025-12-06T12:59:28.193152,7,66,102314.0,98414.0,68.0,99.0
2025-12-06T12:59:28.193152,7,67,102314.0,98414.0,68.0,99.0
2025-12-06T12:59:28.197394,7,68,102846.0,98630.0,68.0,99.0
2025-12-06T12:59:28.197394,7,69,102846.0,98630.0,68.0,99.0
2025-12-06T12:59:28.197394,7,70,102846.0,98630.0,68.0,99.0
2025-12-06T12:59:28.197394,7,71,102846.0,98630.0,68.0,99.0
2025-12-06T12:59:28.197394,7,72,103382.0,98873.0,68.0,99.0
2025-12-06T12:59:28.197394,7,73,103382.0,98873.0,68.0,99.0
2025-12-06T12:59:28.197394,7,74,103382.0,98873.0,68.0,99.0
2025-12-06T12:59:28.197394,7,75,103382.0,98873.0,68.0,99.0
2025-12-06T12:59:28.197394,7,76,103167.0,98742.0,68.0,99.0
2025-12-06T12:59:28.197394,7,77,103167.0,98742.0,68.0,99.0
2025-12-06T12:59:28.202904,7,78,103167.0,98742.0,68.0,99.0
2025-12-06T12:59:28.202904,7,79,103167.0,98742.0,68.0,99.0
2025-12-06T12:59:28.202904,7,80,101315.0,97854.0,68.0,99.0
2025-12-06T12:59:28.202904,7,81,101315.0,97854.0,68.0,99.0
2025-12-06T12:59:28.216527,7,82,101315.0,97854.0,68.0,99.0
2025-12-06T12:59:28.266878,7,83,101315.0,97854.0,68.0,99.0
2025-12-06T12:59:28.294910,7,84,101861.0,98074.0,68.0,99.0
2025-12-06T12:59:28.342830,7,85,101861.0,98074.0,68.0,99.0
2025-12-06T12:59:28.381669,7,86,101861.0,98074.0,68.0,99.0
2025-12-06T12:59:28.414979,7,87,101861.0,98074.0,68.0,99.0
2025-12-06T12:59:28.462398,7,88,102386.0,98321.0,68.0,99.0
2025-12-06T12:59:28.493672,7,89,102386.0,98321.0,68.0,99.0
2025-12-06T12:59:28.540524,7,90,102386.0,98321.0,68.0,99.0
2025-12-06T12:59:28.571786,7,91,102386.0,98321.0,68.0,99.0
2025-12-06T12:59:28.618691,7,92,102932.0,98566.0,68.0,99.0
2025-12-06T12:59:28.665178,7,93,102932.0,98566.0,68.0,99.0
2025-12-06T12:59:28.696768,7,94,102932.0,98566.0,68.0,99.0
2025-12-06T12:59:28.743672,7,95,102932.0,98566.0,68.0,99.0
2025-12-06T12:59:28.774894,7,96,103442.0,98800.0,68.0,99.0
2025-12-06T12:59:28.823281,7,97,103442.0,98800.0,68.0,99.0
2025-12-06T12:59:28.854529,7,98,103442.0,98800.0,68.0,99.0
2025-12-06T12:59:28.903365,7,99,103442.0,98800.0,68.0,99.0
2025-12-06T12:59:28.931547,7,100,102997.0,98615.0,68.0,99.0
2025-12-06T12:59:28.982107,7,101,102997.0,98615.0,68.0,99.0
2025-12-06T12:59:29.014256,7,102,102997.0,98615.0,68.0,99.0
2025-12-06T12:59:29.062377,7,103,102997.0,98615.0,68.0,99.0
2025-12-06T12:59:29.095104,7,104,101670.0,97993.0,68.0,99.0
2025-12-06T12:59:29.143806,7,105,101670.0,97993.0,68.0,99.0
2025-12-06T12:59:29.175951,7,106,101670.0,97993.0,68.0,99.0
2025-12-06T12:59:29.222978,7,107,101670.0,97993.0,68.0,99.0
2025-12-06T12:59:29.254502,7,108,102078.0,98130.0,68.0,99.0
2025-12-06T12:59:29.301379,7,109,102078.0,98130.0,68.0,99.0
2025-12-06T12:59:29.334159,7,110,102078.0,98130.0,68.0,99.0
2025-12-06T12:59:29.380854,7,111,102078.0,98130.0,68.0,99.0
2025-12-06T12:59:29.412250,7,112,102741.0,98443.0,68.0,99.0
2025-12-06T12:59:29.447883,7,113,102741.0,98443.0,68.0,99.0
2025-12-06T12:59:29.497745,7,114,102741.0,98443.0,68.0,99.0
2025-12-06T12:59:29.529304,7,115,102741.0,98443.0,68.0,99.0
2025-12-06T12:59:29.576201,7,116,103382.0,98714.0,68.0,99.0
2025-12-06T12:59:29.607418,7,117,103382.0,98714.0,68.0,99.0
2025-12-06T12:59:29.649475,7,118,103382.0,98714.0,68.0,99.0
2025-12-06T12:59:29.701838,7,119,103382.0,98714.0,68.0,99.0
2025-12-06T12:59:29.733223,7,120,103953.0,98975.0,68.0,99.0
2025-12-06T12:59:29.780068,7,121,103953.0,98975.0,68.0,99.0
2025-12-06T12:59:29.819103,7,122,103953.0,98975.0,68.0,99.0
2025-12-06T12:59:29.846433,7,123,103953.0,98975.0,68.0,99.0
2025-12-06T12:59:29.895101,7,124,104040.0,99006.0,68.0,99.0
2025-12-06T12:59:29.937205,7,125,104040.0,99006.0,68.0,99.0
2025-12-06T12:59:29.980821,7,126,104040.0,99006.0,68.0,99.0
2025-12-06T12:59:30.013516,7,127,104040.0,99006.0,68.0,99.0
2025-12-06T12:59:30.060035,7,128,102480.0,98279.0,68.0,99.0
2025-12-06T12:59:30.092429,7,129,102480.0,98279.0,68.0,99.0
2025-12-06T12:59:30.139480,7,130,102480.0,98279.0,68.0,99.0
2025-12-06T12:59:30.171090,7,131,102480.0,98279.0,68.0,99.0
2025-12-06T12:59:34.775200,8,0,103196.0,98601.0,68.0,98.0
2025-12-06T12:59:34.775200,8,1,103196.0,98601.0,68.0,98.0
2025-12-06T12:59:34.776952,8,2,103196.0,98601.0,68.0,98.0
2025-12-06T12:59:34.777106,8,3,103196.0,98601.0,68.0,98.0
2025-12-06T12:59:34.777106,8,4,103935.0,98923.0,68.0,98.0
2025-12-06T12:59:34.777106,8,5,103935.0,98923.0,68.0,98.0
2025-12-06T12:59:34.779717,8,6,103935.0,98923.0,68.0,98.0
2025-12-06T12:59:34.779717,8,7,103935.0,98923.0,68.0,98.0
2025-12-06T12:59:34.779717,8,8,104617.0,99262.0,68.0,98.0
2025-12-06T12:59:34.779717,8,9,104617.0,99262.0,68.0,98.0
2025-12-06T12:59:34.779717,8,10,104617.0,99262.0,68.0,98.0
2025-12-06T12:59:34.779717,8,11,104617.0,99262.0,68.0,98.0
2025-12-06T12:59:34.779717,8,12,105859.0,99874.0,68.0,98.0
2025-12-06T12:59:34.779717,8,13,105859.0,99874.0,68.0,98.0
2025-12-06T12:59:34.779717,8,14,105859.0,99874.0,68.0,98.0
2025-12-06T12:59:34.779717,8,15,105859.0,99874.0,68.0,98.0
2025-12-06T12:59:34.779717,8,16,105192.0,99594.0,68.0,98.0
2025-12-06T12:59:34.787911,8,17,105192.0,99594.0,68.0,98.0
2025-12-06T12:59:34.788794,8,18,105192.0,99594.0,68.0,98.0
2025-12-06T12:59:34.788794,8,19,105192.0,99594.0,68.0,98.0
2025-12-06T12:59:34.788794,8,20,104127.0,99016.0,68.0,98.0
2025-12-06T12:59:34.790388,8,21,104127.0,99016.0,68.0,98.0
2025-12-06T12:59:34.791360,8,22,104127.0,99016.0,68.0,98.0
2025-12-06T12:59:34.791417,8,23,104127.0,99016.0,68.0,98.0
2025-12-06T12:59:34.791417,8,24,104204.0,99014.0,68.0,98.0
2025-12-06T12:59:34.791417,8,25,104204.0,99014.0,68.0,98.0
2025-12-06T12:59:34.791417,8,26,104204.0,99014.0,68.0,98.0
2025-12-06T12:59:34.793602,8,27,104204.0,99014.0,68.0,98.0
2025-12-06T12:59:34.794719,8,28,104971.0,99378.0,68.0,98.0
2025-12-06T12:59:34.796236,8,29,104971.0,99378.0,68.0,98.0
2025-12-06T12:59:34.797274,8,30,104971.0,99378.0,68.0,98.0
2025-12-06T12:59:34.798688,8,31,104971.0,99378.0,68.0,98.0
2025-12-06T12:59:34.798808,8,32,105596.0,99642.0,68.0,98.0
2025-12-06T12:59:34.798808,8,33,105596.0,99642.0,68.0,98.0
2025-12-06T12:59:34.798808,8,34,105596.0,99642.0,68.0,98.0
2025-12-06T12:59:34.798808,8,35,105596.0,99642.0,68.0,98.0
2025-12-06T12:59:34.798808,8,36,107007.0,100271.0,68.0,98.0
2025-12-06T12:59:34.798808,8,37,107007.0,100271.0,68.0,98.0
2025-12-06T12:59:34.798808,8,38,107007.0,100271.0,68.0,98.0
2025-12-06T12:59:34.798808,8,39,107007.0,100271.0,68.0,98.0
2025-12-06T12:59:34.798808,8,40,104876.0,99358.0,68.0,98.0
2025-12-06T12:59:34.798808,8,41,104876.0,99358.0,68.0,98.0
2025-12-06T12:59:34.798808,8,42,104876.0,99358.0,68.0,98.0
2025-12-06T12:59:34.798808,8,43,104876.0,99358.0,68.0,98.0
2025-12-06T12:59:34.798808,8,44,105438.0,99606.0,68.0,98.0
2025-12-06T12:59:34.798808,8,45,105438.0,99606.0,68.0,98.0
2025-12-06T12:59:34.798808,8,46,105438.0,99606.0,68.0,98.0
2025-12-06T12:59:34.798808,8,47,105438.0,99606.0,68.0,98.0
2025-12-06T12:59:34.798808,8,48,105994.0,99862.0,68.0,98.0
2025-12-06T12:59:34.806983,8,49,105994.0,99862.0,68.0,98.0
2025-12-06T12:59:34.806983,8,50,105994.0,99862.0,68.0,98.0
2025-12-06T12:59:34.806983,8,51,105994.0,99862.0,68.0,98.0
2025-12-06T12:59:34.806983,8,52,106969.0,100289.0,68.0,98.0
2025-12-06T12:59:34.806983,8,53,106969.0,100289.0,68.0,98.0
2025-12-06T12:59:34.806983,8,54,106969.0,100289.0,68.0,98.0
2025-12-06T12:59:34.806983,8,55,106969.0,100289.0,68.0,98.0
2025-12-06T12:59:34.806983,8,56,107713.0,100620.0,68.0,98.0
2025-12-06T12:59:34.806983,8,57,107713.0,100620.0,68.0,98.0
2025-12-06T12:59:34.806983,8,58,107713.0,100620.0,68.0,98.0
2025-12-06T12:59:34.806983,8,59,107713.0,100620.0,68.0,98.0
2025-12-06T12:59:34.806983,8,60,107705.0,100646.0,68.0,98.0
2025-12-06T12:59:34.812624,8,61,107705.0,100646.0,68.0,98.0
2025-12-06T12:59:34.812624,8,62,107705.0,100646.0,68.0,98.0
2025-12-06T12:59:34.812624,8,63,107705.0,100646.0,68.0,98.0
2025-12-06T12:59:34.812624,8,64,106838.0,100314.0,68.0,98.0
2025-12-06T12:59:34.815758,8,65,106838.0,100314.0,68.0,98.0
2025-12-06T12:59:34.815758,8,66,106838.0,100314.0,68.0,98.0
2025-12-06T12:59:34.815758,8,67,106838.0,100314.0,68.0,98.0
2025-12-06T12:59:34.815758,8,68,107344.0,100535.0,68.0,98.0
2025-12-06T12:59:34.815758,8,69,107344.0,100535.0,68.0,98.0
2025-12-06T12:59:34.815758,8,70,107344.0,100535.0,68.0,98.0
2025-12-06T12:59:34.815758,8,71,107344.0,100535.0,68.0,98.0
2025-12-06T12:59:34.815758,8,72,108115.0,100877.0,68.0,98.0
2025-12-06T12:59:34.815758,8,73,108115.0,100877.0,68.0,98.0
2025-12-06T12:59:34.815758,8,74,108115.0,100877.0,68.0,98.0
2025-12-06T12:59:34.815758,8,75,108115.0,100877.0,68.0,98.0
2025-12-06T12:59:34.815758,8,76,108938.0,101233.0,68.0,98.0
2025-12-06T12:59:34.815758,8,77,108938.0,101233.0,68.0,98.0
2025-12-06T12:59:34.815758,8,78,108938.0,101233.0,68.0,98.0
2025-12-06T12:59:34.815758,8,79,108938.0,101233.0,68.0,98.0
2025-12-06T12:59:34.815758,8,80,108424.0,101025.0,68.0,98.0
2025-12-06T12:59:34.815758,8,81,108424.0,101025.0,68.0,98.0
2025-12-06T12:59:34.815758,8,82,108424.0,101025.0,68.0,98.0
2025-12-06T12:59:34.815758,8,83,108424.0,101025.0,68.0,98.0
2025-12-06T12:59:34.815758,8,84,108405.0,101069.0,68.0,98.0
2025-12-06T12:59:34.815758,8,85,108405.0,101069.0,68.0,98.0
2025-12-06T12:59:34.815758,8,86,108405.0,101069.0,68.0,98.0
2025-12-06T12:59:34.815758,8,87,108405.0,101069.0,68.0,98.0
2025-12-06T12:59:34.815758,8,88,108639.0,101178.0,68.0,98.0
2025-12-06T12:59:34.815758,8,89,108639.0,101178.0,68.0,98.0
2025-12-06T12:59:34.815758,8,90,108639.0,101178.0,68.0,98.0
2025-12-06T12:59:34.815758,8,91,108639.0,101178.0,68.0,98.0
2025-12-06T12:59:34.815758,8,92,109298.0,101436.0,68.0,98.0
2025-12-06T12:59:34.815758,8,93,109298.0,101436.0,68.0,98.0
2025-12-06T12:59:34.815758,8,94,109298.0,101436.0,68.0,98.0
2025-12-06T12:59:34.815758,8,95,109298.0,101436.0,68.0,98.0
2025-12-06T12:59:34.815758,8,96,109818.0,101661.0,68.0,98.0
2025-12-06T12:59:34.829450,8,97,109818.0,101661.0,68.0,98.0
2025-12-06T12:59:34.829450,8,98,109818.0,101661.0,68.0,98.0
2025-12-06T12:59:34.831375,8,99,109818.0,101661.0,68.0,98.0
2025-12-06T12:59:34.831375,8,100,107969.0,100895.0,68.0,98.0
2025-12-06T12:59:34.831375,8,101,107969.0,100895.0,68.0,98.0
2025-12-06T12:59:34.831375,8,102,107969.0,100895.0,68.0,98.0
2025-12-06T12:59:34.831375,8,103,107969.0,100895.0,68.0,98.0
2025-12-06T12:59:34.831375,8,104,107990.0,100925.0,68.0,98.0
2025-12-06T12:59:34.831375,8,105,107990.0,100925.0,68.0,98.0
2025-12-06T12:59:34.831375,8,106,107990.0,100925.0,68.0,98.0
2025-12-06T12:59:34.831375,8,107,107990.0,100925.0,68.0,98.0
2025-12-06T12:59:34.831375,8,108,108221.0,101020.0,68.0,98.0
2025-12-06T12:59:34.831375,8,109,108221.0,101020.0,68.0,98.0
2025-12-06T12:59:34.831375,8,110,108221.0,101020.0,68.0,98.0
2025-12-06T12:59:34.831375,8,111,108221.0,101020.0,68.0,98.0
2025-12-06T12:59:34.831375,8,112,108907.0,101305.0,68.0,98.0
2025-12-06T12:59:34.831375,8,113,108907.0,101305.0,68.0,98.0
2025-12-06T12:59:34.831375,8,114,108907.0,101305.0,68.0,98.0
2025-12-06T12:59:34.831375,8,115,108907.0,101305.0,68.0,98.0
2025-12-06T12:59:34.831375,8,116,109515.0,101563.0,68.0,98.0
2025-12-06T12:59:34.879736,8,117,109515.0,101563.0,68.0,98.0
2025-12-06T12:59:34.911360,8,118,109515.0,101563.0,68.0,98.0
2025-12-06T12:59:34.954262,8,119,109515.0,101563.0,68.0,98.0
2025-12-06T12:59:35.001636,8,120,107547.0,100793.0,68.0,98.0
2025-12-06T12:59:35.038906,8,121,107547.0,100793.0,68.0,98.0
2025-12-06T12:59:35.078028,8,122,107547.0,100793.0,68.0,98.0
2025-12-06T12:59:35.110339,8,123,107547.0,100793.0,68.0,98.0
2025-12-06T12:59:35.158402,8,124,107608.0,100855.0,68.0,98.0
2025-12-06T12:59:35.189656,8,125,107608.0,100855.0,68.0,98.0
2025-12-06T12:59:35.236520,8,126,107608.0,100855.0,68.0,98.0
2025-12-06T12:59:35.268987,8,127,107608.0,100855.0,68.0,98.0
2025-12-06T12:59:35.315820,8,128,108069.0,101051.0,68.0,98.0
2025-12-06T12:59:35.347294,8,129,108069.0,101051.0,68.0,98.0
2025-12-06T12:59:35.394994,8,130,108069.0,101051.0,68.0,98.0
2025-12-06T12:59:35.439680,8,131,108069.0,101051.0,68.0,98.0
2025-12-06T12:59:35.466752,8,132,108758.0,101344.0,68.0,98.0
2025-12-06T12:59:35.513290,8,133,108758.0,101344.0,68.0,98.0
2025-12-06T12:59:35.547983,8,134,108758.0,101344.0,68.0,98.0
2025-12-06T12:59:35.596129,8,135,108758.0,101344.0,68.0,98.0
2025-12-06T12:59:35.627079,8,136,109289.0,101559.0,68.0,98.0
2025-12-06T12:59:35.669695,8,137,109289.0,101559.0,68.0,98.0
2025-12-06T12:59:35.716586,8,138,109289.0,101559.0,68.0,98.0
2025-12-06T12:59:35.747548,8,139,109289.0,101559.0,68.0,98.0
2025-12-06T12:59:35.796380,8,140,106759.0,100529.0,68.0,98.0
2025-12-06T12:59:35.828317,8,141,106759.0,100529.0,68.0,98.0
2025-12-06T12:59:35.875472,8,142,106759.0,100529.0,68.0,98.0
2025-12-06T12:59:35.907130,8,143,106759.0,100529.0,68.0,98.0
2025-12-06T12:59:35.956526,8,144,106909.0,100594.0,68.0,98.0
2025-12-06T12:59:35.996215,8,145,106909.0,100594.0,68.0,98.0
2025-12-06T12:59:36.027786,8,146,106909.0,100594.0,68.0,98.0
2025-12-06T12:59:36.077718,8,147,106909.0,100594.0,68.0,98.0
2025-12-06T12:59:36.112383,8,148,107215.0,100725.0,68.0,98.0
2025-12-06T12:59:36.143632,8,149,107215.0,100725.0,68.0,98.0
2025-12-06T12:59:36.190530,8,150,107215.0,100725.0,68.0,98.0
2025-12-06T12:59:36.237075,8,151,107215.0,100725.0,68.0,98.0
2025-12-06T12:59:36.268636,8,152,107877.0,101012.0,68.0,98.0
2025-12-06T12:59:36.315517,8,153,107877.0,101012.0,68.0,98.0
2025-12-06T12:59:36.346456,8,154,107877.0,101012.0,68.0,98.0
2025-12-06T12:59:36.395958,8,155,107877.0,101012.0,68.0,98.0
2025-12-06T12:59:36.427595,8,156,107892.0,101018.0,68.0,98.0
2025-12-06T12:59:36.474441,8,157,107892.0,101018.0,68.0,98.0
2025-12-06T12:59:36.506101,8,158,107892.0,101018.0,68.0,98.0
2025-12-06T12:59:36.554119,8,159,107892.0,101018.0,68.0,98.0
2025-12-06T12:59:36.585382,8,160,106011.0,100271.0,68.0,98.0
2025-12-06T12:59:36.630164,8,161,106011.0,100271.0,68.0,98.0
2025-12-06T12:59:36.663589,8,162,106011.0,100271.0,68.0,98.0
2025-12-06T12:59:36.710710,8,163,106011.0,100271.0,68.0,98.0
2025-12-06T12:59:36.742025,8,164,106486.0,100485.0,68.0,98.0
2025-12-06T12:59:36.788893,8,165,106486.0,100485.0,68.0,98.0
2025-12-06T12:59:40.038998,9,0,106486.0,100485.0,74.0,98.0
2025-12-06T12:59:40.038998,9,1,106486.0,100485.0,74.0,98.0
2025-12-06T12:59:40.038998,9,2,107148.0,100781.0,74.0,98.0
2025-12-06T12:59:40.043607,9,3,107148.0,100781.0,74.0,98.0
2025-12-06T12:59:40.045056,9,4,107148.0,100781.0,74.0,98.0
2025-12-06T12:59:40.045056,9,5,107148.0,100781.0,74.0,98.0
2025-12-06T12:59:40.045056,9,6,107822.0,101060.0,74.0,98.0
2025-12-06T12:59:40.045056,9,7,107822.0,101060.0,74.0,98.0
2025-12-06T12:59:40.045056,9,8,107822.0,101060.0,74.0,98.0
2025-12-06T12:59:40.045056,9,9,107822.0,101060.0,74.0,98.0
2025-12-06T12:59:40.045056,9,10,106151.0,100408.0,74.0,98.0
2025-12-06T12:59:40.045056,9,11,106151.0,100408.0,74.0,98.0
2025-12-06T12:59:40.053114,9,12,106151.0,100408.0,74.0,98.0
2025-12-06T12:59:40.054388,9,13,106151.0,100408.0,74.0,98.0
2025-12-06T12:59:40.054388,9,14,106465.0,100501.0,74.0,98.0
2025-12-06T12:59:40.056697,9,15,106465.0,100501.0,74.0,98.0
2025-12-06T12:59:40.057721,9,16,106465.0,100501.0,74.0,98.0
2025-12-06T12:59:40.057721,9,17,106465.0,100501.0,74.0,98.0
2025-12-06T12:59:40.057721,9,18,106693.0,100628.0,74.0,98.0
2025-12-06T12:59:40.057721,9,19,106693.0,100628.0,74.0,98.0
2025-12-06T12:59:40.060514,9,20,106693.0,100628.0,74.0,98.0
2025-12-06T12:59:40.061397,9,21,106693.0,100628.0,74.0,98.0
2025-12-06T12:59:40.062789,9,22,107549.0,100973.0,74.0,98.0
2025-12-06T12:59:40.063847,9,23,107549.0,100973.0,74.0,98.0
2025-12-06T12:59:40.065112,9,24,107549.0,100973.0,74.0,98.0
2025-12-06T12:59:40.065112,9,25,107549.0,100973.0,74.0,98.0
2025-12-06T12:59:40.066346,9,26,108101.0,101196.0,74.0,98.0
2025-12-06T12:59:40.066906,9,27,108101.0,101196.0,74.0,98.0
2025-12-06T12:59:40.066906,9,28,108101.0,101196.0,74.0,98.0
2025-12-06T12:59:40.066906,9,29,108101.0,101196.0,74.0,98.0
2025-12-06T12:59:40.069502,9,30,105762.0,100267.0,74.0,98.0
2025-12-06T12:59:40.069502,9,31,105762.0,100267.0,74.0,98.0
2025-12-06T12:59:40.069502,9,32,105762.0,100267.0,74.0,98.0
2025-12-06T12:59:40.069502,9,33,105762.0,100267.0,74.0,98.0
2025-12-06T12:59:40.069502,9,34,106474.0,100543.0,74.0,98.0
2025-12-06T12:59:40.069502,9,35,106474.0,100543.0,74.0,98.0
2025-12-06T12:59:40.069502,9,36,106474.0,100543.0,74.0,98.0
2025-12-06T12:59:40.069502,9,37,106474.0,100543.0,74.0,98.0
2025-12-06T12:59:40.069502,9,38,106722.0,100671.0,74.0,98.0
2025-12-06T12:59:40.069502,9,39,106722.0,100671.0,74.0,98.0
2025-12-06T12:59:40.069502,9,40,106722.0,100671.0,74.0,98.0
2025-12-06T12:59:40.069502,9,41,106722.0,100671.0,74.0,98.0
2025-12-06T12:59:40.069502,9,42,107360.0,100918.0,74.0,98.0
2025-12-06T12:59:40.069502,9,43,107360.0,100918.0,74.0,98.0
2025-12-06T12:59:40.069502,9,44,107360.0,100918.0,74.0,98.0
2025-12-06T12:59:40.069502,9,45,107360.0,100918.0,74.0,98.0
2025-12-06T12:59:40.069502,9,46,107808.0,101101.0,74.0,98.0
2025-12-06T12:59:40.069502,9,47,107808.0,101101.0,74.0,98.0
2025-12-06T12:59:40.069502,9,48,107808.0,101101.0,74.0,98.0
2025-12-06T12:59:40.069502,9,49,107808.0,101101.0,74.0,98.0
2025-12-06T12:59:40.069502,9,50,105150.0,100035.0,74.0,98.0
2025-12-06T12:59:40.078297,9,51,105150.0,100035.0,74.0,98.0
2025-12-06T12:59:40.078630,9,52,105150.0,100035.0,74.0,98.0
2025-12-06T12:59:40.080001,9,53,105150.0,100035.0,74.0,98.0
2025-12-06T12:59:40.080001,9,54,105779.0,100308.0,74.0,98.0
2025-12-06T12:59:40.080001,9,55,105779.0,100308.0,74.0,98.0
2025-12-06T12:59:40.080001,9,56,105779.0,100308.0,74.0,98.0
2025-12-06T12:59:40.080001,9,57,105779.0,100308.0,74.0,98.0
2025-12-06T12:59:40.080001,9,58,106172.0,100460.0,74.0,98.0
2025-12-06T12:59:40.080001,9,59,106172.0,100460.0,74.0,98.0
2025-12-06T12:59:40.080001,9,60,106172.0,100460.0,74.0,98.0
2025-12-06T12:59:40.080001,9,61,106172.0,100460.0,74.0,98.0
2025-12-06T12:59:40.080001,9,62,106813.0,100694.0,74.0,98.0
2025-12-06T12:59:40.080001,9,63,106813.0,100694.0,74.0,98.0
2025-12-06T12:59:40.080001,9,64,106813.0,100694.0,74.0,98.0
2025-12-06T12:59:40.080001,9,65,106813.0,100694.0,74.0,98.0
2025-12-06T12:59:40.080001,9,66,107390.0,100950.0,74.0,98.0
2025-12-06T12:59:40.080001,9,67,107390.0,100950.0,74.0,98.0
2025-12-06T12:59:40.080001,9,68,107390.0,100950.0,74.0,98.0
2025-12-06T12:59:40.080001,9,69,107390.0,100950.0,74.0,98.0
2025-12-06T12:59:40.080001,9,70,105270.0,100087.0,74.0,98.0
2025-12-06T12:59:40.080001,9,71,105270.0,100087.0,74.0,98.0
2025-12-06T12:59:40.080001,9,72,105270.0,100087.0,74.0,98.0
2025-12-06T12:59:40.080001,9,73,105270.0,100087.0,74.0,98.0
2025-12-06T12:59:40.080001,9,74,105188.0,100032.0,74.0,98.0
2025-12-06T12:59:40.080001,9,75,105188.0,100032.0,74.0,98.0
2025-12-06T12:59:40.080001,9,76,105188.0,100032.0,74.0,98.0
2025-12-06T12:59:40.080001,9,77,105188.0,100032.0,74.0,98.0
2025-12-06T12:59:40.080001,9,78,105612.0,100230.0,74.0,98.0
2025-12-06T12:59:40.080001,9,79,105612.0,100230.0,74.0,98.0
2025-12-06T12:59:40.080001,9,80,105612.0,100230.0,74.0,98.0
2025-12-06T12:59:40.080001,9,81,105612.0,100230.0,74.0,98.0
2025-12-06T12:59:40.096479,9,82,106479.0,100567.0,74.0,98.0
2025-12-06T12:59:40.128530,9,83,106479.0,100567.0,74.0,98.0
2025-12-06T12:59:40.175776,9,84,106479.0,100567.0,74.0,98.0
2025-12-06T12:59:40.223022,9,85,106479.0,100567.0,74.0,98.0
2025-12-06T12:59:40.261626,9,86,107025.0,100777.0,74.0,98.0
2025-12-06T12:59:40.293253,9,87,107025.0,100777.0,74.0,98.0
2025-12-06T12:59:40.340139,9,88,107025.0,100777.0,74.0,98.0
2025-12-06T12:59:40.371368,9,89,107025.0,100777.0,74.0,98.0
2025-12-06T12:59:40.418629,9,90,107539.0,100968.0,74.0,98.0
2025-12-06T12:59:40.450424,9,91,107539.0,100968.0,74.0,98.0
2025-12-06T12:59:40.497060,9,92,107539.0,100968.0,74.0,98.0
2025-12-06T12:59:40.528490,9,93,107539.0,100968.0,74.0,98.0
2025-12-06T12:59:40.578018,9,94,104794.0,99861.0,74.0,98.0
2025-12-06T12:59:40.609675,9,95,104794.0,99861.0,74.0,98.0
2025-12-06T12:59:40.656541,9,96,104794.0,99861.0,74.0,98.0
2025-12-06T12:59:40.687808,9,97,104794.0,99861.0,74.0,98.0
2025-12-06T12:59:40.734665,9,98,105619.0,100174.0,74.0,98.0
2025-12-06T12:59:40.779465,9,99,105619.0,100174.0,74.0,98.0
2025-12-06T12:59:40.811973,9,100,105619.0,100174.0,74.0,98.0
2025-12-06T12:59:40.859182,9,101,105619.0,100174.0,74.0,98.0
2025-12-06T12:59:40.891554,9,102,106150.0,100413.0,74.0,98.0
2025-12-06T12:59:40.936060,9,103,106150.0,100413.0,74.0,98.0
2025-12-06T12:59:40.975103,9,104,106150.0,100413.0,74.0,98.0
2025-12-06T12:59:41.006370,9,105,106150.0,100413.0,74.0,98.0
2025-12-06T12:59:41.055392,9,106,107001.0,100761.0,74.0,98.0
2025-12-06T12:59:41.084545,9,107,107001.0,100761.0,74.0,98.0
2025-12-06T12:59:41.133027,9,108,107001.0,100761.0,74.0,98.0
2025-12-06T12:59:41.179536,9,109,107001.0,100761.0,74.0,98.0
2025-12-06T12:59:41.211942,9,110,107463.0,100934.0,74.0,98.0
2025-12-06T12:59:41.245269,9,111,107463.0,100934.0,74.0,98.0
2025-12-06T12:59:41.295145,9,112,107463.0,100934.0,74.0,98.0
2025-12-06T12:59:41.327722,9,113,107463.0,100934.0,74.0,98.0
2025-12-06T12:59:41.374545,9,114,105954.0,100336.0,74.0,98.0
2025-12-06T12:59:41.405792,9,115,105954.0,100336.0,74.0,98.0
2025-12-06T12:59:41.452663,9,116,105954.0,100336.0,74.0,98.0
2025-12-06T12:59:41.483911,9,117,105954.0,100336.0,74.0,98.0
2025-12-06T12:59:41.530790,9,118,105826.0,100269.0,74.0,98.0
2025-12-06T12:59:41.578276,9,119,105826.0,100269.0,74.0,98.0
2025-12-06T12:59:41.611647,9,120,105826.0,100269.0,74.0,98.0
2025-12-06T12:59:41.643284,9,121,105826.0,100269.0,74.0,98.0
2025-12-06T12:59:41.685576,9,122,106000.0,100353.0,74.0,98.0
2025-12-06T12:59:41.733518,9,123,106000.0,100353.0,74.0,98.0
2025-12-06T12:59:41.765169,9,124,106000.0,100353.0,74.0,98.0
2025-12-06T12:59:41.813722,9,125,106000.0,100353.0,74.0,98.0
2025-12-06T12:59:41.845662,9,126,106874.0,100706.0,74.0,98.0
2025-12-06T12:59:41.898116,9,127,106874.0,100706.0,74.0,98.0
2025-12-06T12:59:41.929500,9,128,106874.0,100706.0,74.0,98.0
2025-12-06T12:59:41.960910,9,129,106874.0,100706.0,74.0,98.0
2025-12-06T12:59:42.009067,9,130,107268.0,100866.0,74.0,98.0
2025-12-06T12:59:42.056079,9,131,107268.0,100866.0,74.0,98.0
2025-12-06T12:59:45.375429,10,0,107268.0,100866.0,72.0,98.0
2025-12-06T12:59:45.375429,10,1,107268.0,100866.0,72.0,98.0
2025-12-06T12:59:45.377119,10,2,107183.0,100830.0,72.0,98.0
2025-12-06T12:59:45.378040,10,3,107183.0,100830.0,72.0,98.0
2025-12-06T12:59:45.378040,10,4,107183.0,100830.0,72.0,98.0
2025-12-06T12:59:45.378040,10,5,107183.0,100830.0,72.0,98.0
2025-12-06T12:59:45.378040,10,6,105123.0,99997.0,72.0,98.0
2025-12-06T12:59:45.378040,10,7,105123.0,99997.0,72.0,98.0
2025-12-06T12:59:45.378040,10,8,105123.0,99997.0,72.0,98.0
2025-12-06T12:59:45.378040,10,9,105123.0,99997.0,72.0,98.0
2025-12-06T12:59:45.378040,10,10,105627.0,100215.0,72.0,98.0
2025-12-06T12:59:45.378040,10,11,105627.0,100215.0,72.0,98.0
2025-12-06T12:59:45.378040,10,12,105627.0,100215.0,72.0,98.0
2025-12-06T12:59:45.378040,10,13,105627.0,100215.0,72.0,98.0
2025-12-06T12:59:45.378040,10,14,107189.0,100914.0,72.0,98.0
2025-12-06T12:59:45.378040,10,15,107189.0,100914.0,72.0,98.0
2025-12-06T12:59:45.378040,10,16,107189.0,100914.0,72.0,98.0
2025-12-06T12:59:45.378040,10,17,107189.0,100914.0,72.0,98.0
2025-12-06T12:59:45.378040,10,18,107924.0,101221.0,72.0,98.0
2025-12-06T12:59:45.378040,10,19,107924.0,101221.0,72.0,98.0
2025-12-06T12:59:45.378040,10,20,107924.0,101221.0,72.0,98.0
2025-12-06T12:59:45.378040,10,21,107924.0,101221.0,72.0,98.0
2025-12-06T12:59:45.378040,10,22,108491.0,101427.0,72.0,98.0
2025-12-06T12:59:45.378040,10,23,108491.0,101427.0,72.0,98.0
2025-12-06T12:59:45.378040,10,24,108491.0,101427.0,72.0,98.0
2025-12-06T12:59:45.378040,10,25,108491.0,101427.0,72.0,98.0
2025-12-06T12:59:45.378040,10,26,105327.0,100190.0,72.0,98.0
2025-12-06T12:59:45.378040,10,27,105327.0,100190.0,72.0,98.0
2025-12-06T12:59:45.393908,10,28,105327.0,100190.0,72.0,98.0
2025-12-06T12:59:45.394419,10,29,105327.0,100190.0,72.0,98.0
2025-12-06T12:59:45.394821,10,30,105968.0,100441.0,72.0,98.0
2025-12-06T12:59:45.394821,10,31,105968.0,100441.0,72.0,98.0
2025-12-06T12:59:45.396420,10,32,105968.0,100441.0,72.0,98.0
2025-12-06T12:59:45.396951,10,33,105968.0,100441.0,72.0,98.0
2025-12-06T12:59:45.397536,10,34,106035.0,100490.0,72.0,98.0
2025-12-06T12:59:45.397571,10,35,106035.0,100490.0,72.0,98.0
2025-12-06T12:59:45.397571,10,36,106035.0,100490.0,72.0,98.0
2025-12-06T12:59:45.397571,10,37,106035.0,100490.0,72.0,98.0
2025-12-06T12:59:45.397571,10,38,106855.0,100815.0,72.0,98.0
2025-12-06T12:59:45.397571,10,39,106855.0,100815.0,72.0,98.0
2025-12-06T12:59:45.399933,10,40,106855.0,100815.0,72.0,98.0
2025-12-06T12:59:45.400612,10,41,106855.0,100815.0,72.0,98.0
2025-12-06T12:59:45.401732,10,42,107349.0,101007.0,72.0,98.0
2025-12-06T12:59:45.401732,10,43,107349.0,101007.0,72.0,98.0
2025-12-06T12:59:45.401732,10,44,107349.0,101007.0,72.0,98.0
2025-12-06T12:59:45.401732,10,45,107349.0,101007.0,72.0,98.0
2025-12-06T12:59:45.401732,10,46,107172.0,100947.0,72.0,98.0
2025-12-06T12:59:45.401732,10,47,107172.0,100947.0,72.0,98.0
2025-12-06T12:59:45.401732,10,48,107172.0,100947.0,72.0,98.0
2025-12-06T12:59:45.401732,10,49,107172.0,100947.0,72.0,98.0
2025-12-06T12:59:45.401732,10,50,105031.0,100105.0,72.0,98.0
2025-12-06T12:59:45.401732,10,51,105031.0,100105.0,72.0,98.0
2025-12-06T12:59:45.401732,10,52,105031.0,100105.0,72.0,98.0
2025-12-06T12:59:45.401732,10,53,105031.0,100105.0,72.0,98.0
2025-12-06T12:59:45.401732,10,54,105455.0,100268.0,72.0,98.0
2025-12-06T12:59:45.401732,10,55,105455.0,100268.0,72.0,98.0
2025-12-06T12:59:45.401732,10,56,105455.0,100268.0,72.0,98.0
2025-12-06T12:59:45.401732,10,57,105455.0,100268.0,72.0,98.0
2025-12-06T12:59:45.410499,10,58,106068.0,100496.0,72.0,98.0
2025-12-06T12:59:45.410499,10,59,106068.0,100496.0,72.0,98.0
2025-12-06T12:59:45.412753,10,60,106068.0,100496.0,72.0,98.0
2025-12-06T12:59:45.412753,10,61,106068.0,100496.0,72.0,98.0
2025-12-06T12:59:45.413904,10,62,106721.0,100778.0,72.0,98.0
2025-12-06T12:59:45.413904,10,63,106721.0,100778.0,72.0,98.0
2025-12-06T12:59:45.413904,10,64,106721.0,100778.0,72.0,98.0
2025-12-06T12:59:45.413904,10,65,106721.0,100778.0,72.0,98.0
2025-12-06T12:59:45.413904,10,66,107321.0,101009.0,72.0,98.0
2025-12-06T12:59:45.413904,10,67,107321.0,101009.0,72.0,98.0
2025-12-06T12:59:45.413904,10,68,107321.0,101009.0,72.0,98.0
2025-12-06T12:59:45.413904,10,69,107321.0,101009.0,72.0,98.0
2025-12-06T12:59:45.413904,10,70,104559.0,99918.0,72.0,98.0
2025-12-06T12:59:45.413904,10,71,104559.0,99918.0,72.0,98.0
2025-12-06T12:59:45.413904,10,72,104559.0,99918.0,72.0,98.0
2025-12-06T12:59:45.413904,10,73,104559.0,99918.0,72.0,98.0
2025-12-06T12:59:45.413904,10,74,105396.0,100256.0,72.0,98.0
2025-12-06T12:59:45.413904,10,75,105396.0,100256.0,72.0,98.0
2025-12-06T12:59:45.413904,10,76,105396.0,100256.0,72.0,98.0
2025-12-06T12:59:45.413904,10,77,105396.0,100256.0,72.0,98.0
2025-12-06T12:59:45.413904,10,78,105477.0,100289.0,72.0,98.0
2025-12-06T12:59:45.413904,10,79,105477.0,100289.0,72.0,98.0
2025-12-06T12:59:45.413904,10,80,105477.0,100289.0,72.0,98.0
2025-12-06T12:59:45.413904,10,81,105477.0,100289.0,72.0,98.0
2025-12-06T12:59:45.422117,10,82,106201.0,100571.0,72.0,98.0
2025-12-06T12:59:45.422117,10,83,106201.0,100571.0,72.0,98.0
2025-12-06T12:59:45.434101,10,84,106201.0,100571.0,72.0,98.0
2025-12-06T12:59:45.477915,10,85,106201.0,100571.0,72.0,98.0
2025-12-06T12:59:45.509535,10,86,106656.0,100745.0,72.0,98.0
2025-12-06T12:59:45.556425,10,87,106656.0,100745.0,72.0,98.0
2025-12-06T12:59:45.594597,10,88,106656.0,100745.0,72.0,98.0
2025-12-06T12:59:45.633358,10,89,106656.0,100745.0,72.0,98.0
2025-12-06T12:59:45.678379,10,90,105505.0,100303.0,72.0,98.0
2025-12-06T12:59:45.715587,10,91,105505.0,100303.0,72.0,98.0
2025-12-06T12:59:45.747989,10,92,105505.0,100303.0,72.0,98.0
2025-12-06T12:59:45.794503,10,93,105505.0,100303.0,72.0,98.0
2025-12-06T12:59:45.826453,10,94,104302.0,99799.0,72.0,98.0
2025-12-06T12:59:45.873843,10,95,104302.0,99799.0,72.0,98.0
2025-12-06T12:59:45.920364,10,96,104302.0,99799.0,72.0,98.0
2025-12-06T12:59:45.951991,10,97,104302.0,99799.0,72.0,98.0
2025-12-06T12:59:45.998840,10,98,104515.0,99875.0,72.0,98.0
2025-12-06T12:59:46.036194,10,99,104515.0,99875.0,72.0,98.0
2025-12-06T12:59:46.070224,10,100,104515.0,99875.0,72.0,98.0
2025-12-06T12:59:46.105086,10,101,104515.0,99875.0,72.0,98.0
2025-12-06T12:59:46.144677,10,102,105197.0,100121.0,72.0,98.0
2025-12-06T12:59:46.195062,10,103,105197.0,100121.0,72.0,98.0
2025-12-06T12:59:46.227067,10,104,105197.0,100121.0,72.0,98.0
2025-12-06T12:59:46.274407,10,105,105197.0,100121.0,72.0,98.0
2025-12-06T12:59:46.305674,10,106,105724.0,100322.0,72.0,98.0
2025-12-06T12:59:46.353324,10,107,105724.0,100322.0,72.0,98.0
2025-12-06T12:59:46.384579,10,108,105724.0,100322.0,72.0,98.0
2025-12-06T12:59:46.431493,10,109,105724.0,100322.0,72.0,98.0
2025-12-06T12:59:46.477968,10,110,106292.0,100552.0,72.0,98.0
2025-12-06T12:59:46.509579,10,111,106292.0,100552.0,72.0,98.0
2025-12-06T12:59:46.556469,10,112,106292.0,100552.0,72.0,98.0
2025-12-06T12:59:46.588801,10,113,106292.0,100552.0,72.0,98.0
2025-12-06T12:59:46.623229,10,114,103416.0,99396.0,72.0,98.0
2025-12-06T12:59:46.677846,10,115,103416.0,99396.0,72.0,98.0
2025-12-06T12:59:46.705772,10,116,103416.0,99396.0,72.0,98.0
2025-12-06T12:59:46.753046,10,117,103416.0,99396.0,72.0,98.0
2025-12-06T12:59:46.784292,10,118,104166.0,99693.0,72.0,98.0
2025-12-06T12:59:46.831169,10,119,104166.0,99693.0,72.0,98.0
2025-12-06T12:59:46.877669,10,120,104166.0,99693.0,72.0,98.0
2025-12-06T12:59:46.909301,10,121,104166.0,99693.0,72.0,98.0
2025-12-06T12:59:46.961213,10,122,104453.0,99806.0,72.0,98.0
2025-12-06T12:59:46.992717,10,123,104453.0,99806.0,72.0,98.0
2025-12-06T12:59:47.024227,10,124,104453.0,99806.0,72.0,98.0
2025-12-06T12:59:47.073351,10,125,104453.0,99806.0,72.0,98.0
2025-12-06T12:59:47.104999,10,126,105142.0,100102.0,72.0,98.0
2025-12-06T12:59:47.155214,10,127,105142.0,100102.0,72.0,98.0
2025-12-06T12:59:47.194984,10,128,105142.0,100102.0,72.0,98.0
2025-12-06T12:59:47.234268,10,129,105142.0,100102.0,72.0,98.0
2025-12-06T12:59:47.265488,10,130,105682.0,100307.0,72.0,98.0
2025-12-06T12:59:47.313947,10,131,105682.0,100307.0,72.0,98.0
2025-12-06T12:59:47.345338,10,132,105682.0,100307.0,72.0,98.0
2025-12-06T12:59:47.392430,10,133,105682.0,100307.0,72.0,98.0
2025-12-06T12:59:48.998451,11,0,105606.0,100311.0,70.0,99.0
2025-12-06T12:59:48.998451,11,1,105606.0,100311.0,70.0,99.0
2025-12-06T12:59:48.998451,11,2,105606.0,100311.0,70.0,99.0
2025-12-06T12:59:49.002311,11,3,105606.0,100311.0,70.0,99.0
2025-12-06T12:59:49.002311,11,4,103815.0,99573.0,70.0,99.0
2025-12-06T12:59:49.002311,11,5,103815.0,99573.0,70.0,99.0
2025-12-06T12:59:49.002311,11,6,103815.0,99573.0,70.0,99.0
2025-12-06T12:59:49.002311,11,7,103815.0,99573.0,70.0,99.0
2025-12-06T12:59:49.002311,11,8,104257.0,99769.0,70.0,99.0
2025-12-06T12:59:49.002311,11,9,104257.0,99769.0,70.0,99.0
2025-12-06T12:59:49.009832,11,10,104257.0,99769.0,70.0,99.0
2025-12-06T12:59:49.011289,11,11,104257.0,99769.0,70.0,99.0
2025-12-06T12:59:49.011289,11,12,104995.0,100065.0,70.0,99.0
2025-12-06T12:59:49.013435,11,13,104995.0,100065.0,70.0,99.0
2025-12-06T12:59:49.013918,11,14,104995.0,100065.0,70.0,99.0
2025-12-06T12:59:49.015086,11,15,104995.0,100065.0,70.0,99.0
2025-12-06T12:59:49.015086,11,16,105677.0,100357.0,70.0,99.0
2025-12-06T12:59:49.015086,11,17,105677.0,100357.0,70.0,99.0
2025-12-06T12:59:49.015086,11,18,105677.0,100357.0,70.0,99.0
2025-12-06T12:59:49.015086,11,19,105677.0,100357.0,70.0,99.0
2025-12-06T12:59:49.018424,11,20,106261.0,100581.0,70.0,99.0
2025-12-06T12:59:49.019401,11,21,106261.0,100581.0,70.0,99.0
2025-12-06T12:59:49.020612,11,22,106261.0,100581.0,70.0,99.0
2025-12-06T12:59:49.020612,11,23,106261.0,100581.0,70.0,99.0
2025-12-06T12:59:49.020612,11,24,103747.0,99598.0,70.0,99.0
2025-12-06T12:59:49.020612,11,25,103747.0,99598.0,70.0,99.0
2025-12-06T12:59:49.020612,11,26,103747.0,99598.0,70.0,99.0
2025-12-06T12:59:49.020612,11,27,103747.0,99598.0,70.0,99.0
2025-12-06T12:59:49.020612,11,28,104723.0,99989.0,70.0,99.0
2025-12-06T12:59:49.020612,11,29,104723.0,99989.0,70.0,99.0
2025-12-06T12:59:49.020612,11,30,104723.0,99989.0,70.0,99.0
2025-12-06T12:59:49.020612,11,31,104723.0,99989.0,70.0,99.0
2025-12-06T12:59:49.020612,11,32,104968.0,100079.0,70.0,99.0
2025-12-06T12:59:49.020612,11,33,104968.0,100079.0,70.0,99.0
2025-12-06T12:59:49.020612,11,34,104968.0,100079.0,70.0,99.0
2025-12-06T12:59:49.020612,11,35,104968.0,100079.0,70.0,99.0
2025-12-06T12:59:49.020612,11,36,105751.0,100376.0,70.0,99.0
2025-12-06T12:59:49.028614,11,37,105751.0,100376.0,70.0,99.0
2025-12-06T12:59:49.028614,11,38,105751.0,100376.0,70.0,99.0
2025-12-06T12:59:49.029605,11,39,105751.0,100376.0,70.0,99.0
2025-12-06T12:59:49.029605,11,40,106268.0,100589.0,70.0,99.0
2025-12-06T12:59:49.069537,11,41,106268.0,100589.0,70.0,99.0
2025-12-06T12:59:49.109457,11,42,106268.0,100589.0,70.0,99.0
2025-12-06T12:59:49.141131,11,43,106268.0,100589.0,70.0,99.0
2025-12-06T12:59:49.187876,11,44,104721.0,99983.0,70.0,99.0
2025-12-06T12:59:49.219199,11,45,104721.0,99983.0,70.0,99.0
2025-12-06T12:59:49.263946,11,46,104721.0,99983.0,70.0,99.0
2025-12-06T12:59:49.295570,11,47,104721.0,99983.0,70.0,99.0
2025-12-06T12:59:49.342474,11,48,103887.0,99624.0,70.0,99.0
2025-12-06T12:59:49.387286,11,49,103887.0,99624.0,70.0,99.0
2025-12-06T12:59:49.425598,11,50,103887.0,99624.0,70.0,99.0
2025-12-06T12:59:49.457028,11,51,103887.0,99624.0,70.0,99.0
2025-12-06T12:59:49.504414,11,52,104231.0,99749.0,70.0,99.0
2025-12-06T12:59:49.535736,11,53,104231.0,99749.0,70.0,99.0
2025-12-06T12:59:49.582542,11,54,104231.0,99749.0,70.0,99.0
2025-12-06T12:59:49.613779,11,55,104231.0,99749.0,70.0,99.0
2025-12-06T12:59:49.663463,11,56,105042.0,100082.0,70.0,99.0
2025-12-06T12:59:49.694841,11,57,105042.0,100082.0,70.0,99.0
2025-12-06T12:59:49.742851,11,58,105042.0,100082.0,70.0,99.0
2025-12-06T12:59:49.775424,11,59,105042.0,100082.0,70.0,99.0
2025-12-06T12:59:49.823331,11,60,105587.0,100301.0,70.0,99.0
2025-12-06T12:59:49.864094,11,61,105587.0,100301.0,70.0,99.0
2025-12-06T12:59:49.896505,11,62,105587.0,100301.0,70.0,99.0
2025-12-06T12:59:49.943531,11,63,105587.0,100301.0,70.0,99.0
2025-12-06T12:59:49.976460,11,64,106272.0,100567.0,70.0,99.0
2025-12-06T12:59:50.023616,11,65,106272.0,100567.0,70.0,99.0
2025-12-06T12:59:50.062513,11,66,106272.0,100567.0,70.0,99.0
2025-12-06T12:59:50.093677,11,67,106272.0,100567.0,70.0,99.0
2025-12-06T12:59:50.130315,11,68,103336.0,99398.0,70.0,99.0
2025-12-06T12:59:50.181993,11,69,103336.0,99398.0,70.0,99.0
2025-12-06T12:59:50.213514,11,70,103336.0,99398.0,70.0,99.0
2025-12-06T12:59:50.262486,11,71,103336.0,99398.0,70.0,99.0
2025-12-06T12:59:50.303290,11,72,104017.0,99642.0,70.0,99.0
2025-12-06T12:59:50.335145,11,73,104017.0,99642.0,70.0,99.0
2025-12-06T12:59:50.382037,11,74,104017.0,99642.0,70.0,99.0
2025-12-06T12:59:50.413267,11,75,104017.0,99642.0,70.0,99.0
2025-12-06T12:59:50.459700,11,76,104361.0,99772.0,70.0,99.0
2025-12-06T12:59:50.487937,11,77,104361.0,99772.0,70.0,99.0
2025-12-06T12:59:50.535834,11,78,104361.0,99772.0,70.0,99.0
2025-12-06T12:59:50.582556,11,79,104361.0,99772.0,70.0,99.0
2025-12-06T12:59:50.613984,11,80,105130.0,100095.0,70.0,99.0
2025-12-06T12:59:50.651736,11,81,105130.0,100095.0,70.0,99.0
2025-12-06T12:59:50.693674,11,82,105130.0,100095.0,70.0,99.0
2025-12-06T12:59:50.741383,11,83,105130.0,100095.0,70.0,99.0
2025-12-06T12:59:50.774331,11,84,105648.0,100300.0,70.0,99.0
2025-12-06T12:59:50.814942,11,85,105648.0,100300.0,70.0,99.0
2025-12-06T12:59:50.861448,11,86,105648.0,100300.0,70.0,99.0
2025-12-06T12:59:50.895195,11,87,105648.0,100300.0,70.0,99.0
2025-12-06T12:59:50.934625,11,88,106184.0,100506.0,70.0,99.0
2025-12-06T12:59:50.976765,11,89,106184.0,100506.0,70.0,99.0
2025-12-06T12:59:51.009366,11,90,106184.0,100506.0,70.0,99.0
2025-12-06T12:59:53.494371,12,0,106184.0,100506.0,69.0,99.0
2025-12-06T12:59:53.494371,12,1,103553.0,99430.0,69.0,99.0
2025-12-06T12:59:53.494371,12,2,103553.0,99430.0,69.0,99.0
2025-12-06T12:59:53.494371,12,3,103553.0,99430.0,69.0,99.0
2025-12-06T12:59:53.494371,12,4,103553.0,99430.0,69.0,99.0
2025-12-06T12:59:53.494371,12,5,104110.0,99663.0,69.0,99.0
2025-12-06T12:59:53.494371,12,6,104110.0,99663.0,69.0,99.0
2025-12-06T12:59:53.494371,12,7,104110.0,99663.0,69.0,99.0
2025-12-06T12:59:53.494371,12,8,104110.0,99663.0,69.0,99.0
2025-12-06T12:59:53.494371,12,9,104597.0,99867.0,69.0,99.0
2025-12-06T12:59:53.494371,12,10,104597.0,99867.0,69.0,99.0
2025-12-06T12:59:53.494371,12,11,104597.0,99867.0,69.0,99.0
2025-12-06T12:59:53.494371,12,12,104597.0,99867.0,69.0,99.0
2025-12-06T12:59:53.494371,12,13,105287.0,100151.0,69.0,99.0
2025-12-06T12:59:53.494371,12,14,105287.0,100151.0,69.0,99.0
2025-12-06T12:59:53.494371,12,15,105287.0,100151.0,69.0,99.0
2025-12-06T12:59:53.494371,12,16,105287.0,100151.0,69.0,99.0
2025-12-06T12:59:53.502444,12,17,105897.0,100383.0,69.0,99.0
2025-12-06T12:59:53.502444,12,18,105897.0,100383.0,69.0,99.0
2025-12-06T12:59:53.502444,12,19,105897.0,100383.0,69.0,99.0
2025-12-06T12:59:53.502444,12,20,105897.0,100383.0,69.0,99.0
2025-12-06T12:59:53.502444,12,21,105895.0,100395.0,69.0,99.0
2025-12-06T12:59:53.502444,12,22,105895.0,100395.0,69.0,99.0
2025-12-06T12:59:53.502444,12,23,105895.0,100395.0,69.0,99.0
2025-12-06T12:59:53.502444,12,24,105895.0,100395.0,69.0,99.0
2025-12-06T12:59:53.502444,12,25,103862.0,99582.0,69.0,99.0
2025-12-06T12:59:53.502444,12,26,103862.0,99582.0,69.0,99.0
2025-12-06T12:59:53.507511,12,27,103862.0,99582.0,69.0,99.0
2025-12-06T12:59:53.508058,12,28,103862.0,99582.0,69.0,99.0
2025-12-06T12:59:53.508058,12,29,104263.0,99737.0,69.0,99.0
2025-12-06T12:59:53.508058,12,30,104263.0,99737.0,69.0,99.0
2025-12-06T12:59:53.508058,12,31,104263.0,99737.0,69.0,99.0
2025-12-06T12:59:53.508058,12,32,104263.0,99737.0,69.0,99.0
2025-12-06T12:59:53.508058,12,33,104895.0,99994.0,69.0,99.0
2025-12-06T12:59:53.508058,12,34,104895.0,99994.0,69.0,99.0
2025-12-06T12:59:53.508058,12,35,104895.0,99994.0,69.0,99.0
2025-12-06T12:59:53.508058,12,36,104895.0,99994.0,69.0,99.0
2025-12-06T12:59:53.508058,12,37,105498.0,100239.0,69.0,99.0
2025-12-06T12:59:53.508058,12,38,105498.0,100239.0,69.0,99.0
2025-12-06T12:59:53.508058,12,39,105498.0,100239.0,69.0,99.0
2025-12-06T12:59:53.508058,12,40,105498.0,100239.0,69.0,99.0
2025-12-06T12:59:53.508058,12,41,106072.0,100485.0,69.0,99.0
2025-12-06T12:59:53.508058,12,42,106072.0,100485.0,69.0,99.0
2025-12-06T12:59:53.508058,12,43,106072.0,100485.0,69.0,99.0
2025-12-06T12:59:53.508058,12,44,106072.0,100485.0,69.0,99.0
2025-12-06T12:59:53.508058,12,45,105082.0,100099.0,69.0,99.0
2025-12-06T12:59:53.508058,12,46,105082.0,100099.0,69.0,99.0
2025-12-06T12:59:53.508058,12,47,105082.0,100099.0,69.0,99.0
2025-12-06T12:59:53.516320,12,48,105082.0,100099.0,69.0,99.0
2025-12-06T12:59:53.516320,12,49,104101.0,99681.0,69.0,99.0
2025-12-06T12:59:53.516320,12,50,104101.0,99681.0,69.0,99.0
2025-12-06T12:59:53.516320,12,51,104101.0,99681.0,69.0,99.0
2025-12-06T12:59:53.516320,12,52,104101.0,99681.0,69.0,99.0
2025-12-06T12:59:53.516320,12,53,104028.0,99649.0,69.0,99.0
2025-12-06T12:59:53.516320,12,54,104028.0,99649.0,69.0,99.0
2025-12-06T12:59:53.516320,12,55,104028.0,99649.0,69.0,99.0
2025-12-06T12:59:53.516320,12,56,104028.0,99649.0,69.0,99.0
2025-12-06T12:59:53.516320,12,57,104389.0,99766.0,69.0,99.0
2025-12-06T12:59:53.516320,12,58,104389.0,99766.0,69.0,99.0
2025-12-06T12:59:53.522511,12,59,104389.0,99766.0,69.0,99.0
2025-12-06T12:59:53.522917,12,60,104389.0,99766.0,69.0,99.0
2025-12-06T12:59:53.524059,12,61,104874.0,99963.0,69.0,99.0
2025-12-06T12:59:53.526935,12,62,104874.0,99963.0,69.0,99.0
2025-12-06T12:59:53.560636,12,63,104874.0,99963.0,69.0,99.0
2025-12-06T12:59:53.610374,12,64,104874.0,99963.0,69.0,99.0
2025-12-06T12:59:53.646917,12,65,105806.0,100348.0,69.0,99.0
2025-12-06T12:59:53.678621,12,66,105806.0,100348.0,69.0,99.0
2025-12-06T12:59:53.720809,12,67,105806.0,100348.0,69.0,99.0
2025-12-06T12:59:53.768856,12,68,105806.0,100348.0,69.0,99.0
2025-12-06T12:59:53.810196,12,69,103749.0,99528.0,69.0,99.0
2025-12-06T12:59:53.843266,12,70,103749.0,99528.0,69.0,99.0
2025-12-06T12:59:53.883018,12,71,103749.0,99528.0,69.0,99.0
2025-12-06T12:59:53.929861,12,72,103749.0,99528.0,69.0,99.0
2025-12-06T12:59:53.961120,12,73,104090.0,99631.0,69.0,99.0
2025-12-06T12:59:54.008002,12,74,104090.0,99631.0,69.0,99.0
2025-12-06T12:59:54.039244,12,75,104090.0,99631.0,69.0,99.0
2025-12-06T12:59:54.086141,12,76,104090.0,99631.0,69.0,99.0
2025-12-06T12:59:54.118852,12,77,104363.0,99754.0,69.0,99.0
2025-12-06T12:59:54.165735,12,78,104363.0,99754.0,69.0,99.0
2025-12-06T12:59:54.196971,12,79,104363.0,99754.0,69.0,99.0
2025-12-06T12:59:54.247576,12,80,104363.0,99754.0,69.0,99.0
2025-12-06T12:59:54.278821,12,81,105357.0,100162.0,69.0,99.0
2025-12-06T12:59:54.325573,12,82,105357.0,100162.0,69.0,99.0
2025-12-06T12:59:54.368803,12,83,105357.0,100162.0,69.0,99.0
2025-12-06T12:59:54.408013,12,84,105357.0,100162.0,69.0,99.0
2025-12-06T12:59:54.439378,12,85,105997.0,100411.0,69.0,99.0
2025-12-06T12:59:54.487457,12,86,105997.0,100411.0,69.0,99.0
2025-12-06T12:59:54.524369,12,87,105997.0,100411.0,69.0,99.0
2025-12-06T12:59:54.555611,12,88,105997.0,100411.0,69.0,99.0
2025-12-06T12:59:54.603549,12,89,105521.0,100229.0,69.0,99.0
2025-12-06T12:59:54.635273,12,90,105521.0,100229.0,69.0,99.0
2025-12-06T12:59:54.682148,12,91,105521.0,100229.0,69.0,99.0
2025-12-06T12:59:54.713965,12,92,105521.0,100229.0,69.0,99.0
2025-12-06T12:59:54.762487,12,93,104206.0,99714.0,69.0,99.0
2025-12-06T12:59:54.793440,12,94,104206.0,99714.0,69.0,99.0
2025-12-06T12:59:54.840590,12,95,104206.0,99714.0,69.0,99.0
2025-12-06T12:59:54.882922,12,96,104206.0,99714.0,69.0,99.0
2025-12-06T12:59:54.923987,12,97,104468.0,99813.0,69.0,99.0
2025-12-06T12:59:54.961006,12,98,104468.0,99813.0,69.0,99.0
2025-12-06T12:59:54.992125,12,99,104468.0,99813.0,69.0,99.0
2025-12-06T12:59:55.039257,12,100,104468.0,99813.0,69.0,99.0
2025-12-06T12:59:55.085868,12,101,105196.0,100111.0,69.0,99.0
2025-12-06T12:59:55.117365,12,102,105196.0,100111.0,69.0,99.0
2025-12-06T12:59:55.165396,12,103,105196.0,100111.0,69.0,99.0
2025-12-06T12:59:55.196672,12,104,105196.0,100111.0,69.0,99.0
2025-12-06T12:59:55.245354,12,105,105806.0,100354.0,69.0,99.0
2025-12-06T12:59:55.276327,12,106,105806.0,100354.0,69.0,99.0
2025-12-06T12:59:55.323584,12,107,105806.0,100354.0,69.0,99.0
2025-12-06T12:59:55.355612,12,108,105806.0,100354.0,69.0,99.0
2025-12-06T12:59:55.403157,12,109,104554.0,99854.0,69.0,99.0
2025-12-06T12:59:55.441172,12,110,104554.0,99854.0,69.0,99.0
2025-12-06T12:59:55.472052,12,111,104554.0,99854.0,69.0,99.0
2025-12-06T12:59:55.519363,12,112,104554.0,99854.0,69.0,99.0
2025-12-06T12:59:57.592405,13,0,103662.0,99461.0,68.0,99.0
2025-12-06T12:59:57.592405,13,1,103662.0,99461.0,68.0,99.0
2025-12-06T12:59:57.592405,13,2,103662.0,99461.0,68.0,99.0
2025-12-06T12:59:57.592405,13,3,103662.0,99461.0,68.0,99.0
2025-12-06T12:59:57.592405,13,4,104006.0,99603.0,68.0,99.0
2025-12-06T12:59:57.592405,13,5,104006.0,99603.0,68.0,99.0
2025-12-06T12:59:57.592405,13,6,104006.0,99603.0,68.0,99.0
2025-12-06T12:59:57.592405,13,7,104006.0,99603.0,68.0,99.0
2025-12-06T12:59:57.608108,13,8,104697.0,99888.0,68.0,99.0
2025-12-06T12:59:57.610046,13,9,104697.0,99888.0,68.0,99.0
2025-12-06T12:59:57.610188,13,10,104697.0,99888.0,68.0,99.0
2025-12-06T12:59:57.610188,13,11,104697.0,99888.0,68.0,99.0
2025-12-06T12:59:57.612465,13,12,105207.0,100096.0,68.0,99.0
2025-12-06T12:59:57.612686,13,13,105207.0,100096.0,68.0,99.0
2025-12-06T12:59:57.612686,13,14,105207.0,100096.0,68.0,99.0
2025-12-06T12:59:57.612686,13,15,105207.0,100096.0,68.0,99.0
2025-12-06T12:59:57.614727,13,16,104305.0,99740.0,68.0,99.0
2025-12-06T12:59:57.614727,13,17,104305.0,99740.0,68.0,99.0
2025-12-06T12:59:57.614727,13,18,104305.0,99740.0,68.0,99.0
2025-12-06T12:59:57.614727,13,19,104305.0,99740.0,68.0,99.0
2025-12-06T12:59:57.614727,13,20,103125.0,99228.0,68.0,99.0
2025-12-06T12:59:57.614727,13,21,103125.0,99228.0,68.0,99.0
2025-12-06T12:59:57.614727,13,22,103125.0,99228.0,68.0,99.0
2025-12-06T12:59:57.614727,13,23,103125.0,99228.0,68.0,99.0
2025-12-06T12:59:57.614727,13,24,103543.0,99382.0,68.0,99.0
2025-12-06T12:59:57.614727,13,25,103543.0,99382.0,68.0,99.0
2025-12-06T12:59:57.622990,13,26,103543.0,99382.0,68.0,99.0
2025-12-06T12:59:57.622990,13,27,103543.0,99382.0,68.0,99.0
2025-12-06T12:59:57.622990,13,28,104217.0,99640.0,68.0,99.0
2025-12-06T12:59:57.624765,13,29,104217.0,99640.0,68.0,99.0
2025-12-06T12:59:57.625926,13,30,104217.0,99640.0,68.0,99.0
2025-12-06T12:59:57.626057,13,31,104217.0,99640.0,68.0,99.0
2025-12-06T12:59:57.626836,13,32,104741.0,99883.0,68.0,99.0
2025-12-06T12:59:57.626836,13,33,104741.0,99883.0,68.0,99.0
2025-12-06T12:59:57.626836,13,34,104741.0,99883.0,68.0,99.0
2025-12-06T12:59:57.626836,13,35,104741.0,99883.0,68.0,99.0
2025-12-06T12:59:57.626836,13,36,105011.0,99981.0,68.0,99.0
2025-12-06T12:59:57.629125,13,37,105011.0,99981.0,68.0,99.0
2025-12-06T12:59:57.629280,13,38,105011.0,99981.0,68.0,99.0
2025-12-06T12:59:57.630327,13,39,105011.0,99981.0,68.0,99.0
2025-12-06T12:59:57.631230,13,40,102930.0,99101.0,68.0,99.0
2025-12-06T12:59:57.631230,13,41,102930.0,99101.0,68.0,99.0
2025-12-06T12:59:57.631230,13,42,102930.0,99101.0,68.0,99.0
2025-12-06T12:59:57.631230,13,43,102930.0,99101.0,68.0,99.0
2025-12-06T12:59:57.631230,13,44,103339.0,99265.0,68.0,99.0
2025-12-06T12:59:57.635355,13,45,103339.0,99265.0,68.0,99.0
2025-12-06T12:59:57.635355,13,46,103339.0,99265.0,68.0,99.0
2025-12-06T12:59:57.635355,13,47,103339.0,99265.0,68.0,99.0
2025-12-06T12:59:57.635355,13,48,103872.0,99480.0,68.0,99.0
2025-12-06T12:59:57.635355,13,49,103872.0,99480.0,68.0,99.0
2025-12-06T12:59:57.635355,13,50,103872.0,99480.0,68.0,99.0
2025-12-06T12:59:57.635355,13,51,103872.0,99480.0,68.0,99.0
2025-12-06T12:59:57.635355,13,52,104451.0,99722.0,68.0,99.0
2025-12-06T12:59:57.675460,13,53,104451.0,99722.0,68.0,99.0
2025-12-06T12:59:57.707572,13,54,104451.0,99722.0,68.0,99.0
2025-12-06T12:59:57.754510,13,55,104451.0,99722.0,68.0,99.0
2025-12-06T12:59:57.785723,13,56,104995.0,99960.0,68.0,99.0
2025-12-06T12:59:57.832598,13,57,104995.0,99960.0,68.0,99.0
2025-12-06T12:59:57.863845,13,58,104995.0,99960.0,68.0,99.0
2025-12-06T12:59:57.912003,13,59,104995.0,99960.0,68.0,99.0
2025-12-06T12:59:57.948834,13,60,102905.0,99071.0,68.0,99.0
2025-12-06T12:59:57.982149,13,61,102905.0,99071.0,68.0,99.0
2025-12-06T12:59:58.028975,13,62,102905.0,99071.0,68.0,99.0
2025-12-06T12:59:58.075488,13,63,102905.0,99071.0,68.0,99.0
2025-12-06T12:59:58.108996,13,64,103437.0,99296.0,68.0,99.0
2025-12-06T12:59:58.142058,13,65,103437.0,99296.0,68.0,99.0
2025-12-06T12:59:58.189310,13,66,103437.0,99296.0,68.0,99.0
2025-12-06T12:59:58.222932,13,67,103437.0,99296.0,68.0,99.0
2025-12-06T12:59:58.270217,13,68,103910.0,99496.0,68.0,99.0
2025-12-06T12:59:58.302056,13,69,103910.0,99496.0,68.0,99.0
2025-12-06T12:59:58.348928,13,70,103910.0,99496.0,68.0,99.0
2025-12-06T12:59:58.380584,13,71,103910.0,99496.0,68.0,99.0
2025-12-06T12:59:58.428495,13,72,104575.0,99789.0,68.0,99.0
2025-12-06T12:59:58.459023,13,73,104575.0,99789.0,68.0,99.0
2025-12-06T12:59:58.507947,13,74,104575.0,99789.0,68.0,99.0
2025-12-06T12:59:58.539185,13,75,104575.0,99789.0,68.0,99.0
2025-12-06T12:59:58.586101,13,76,105228.0,100059.0,68.0,99.0
2025-12-06T12:59:58.624631,13,77,105228.0,100059.0,68.0,99.0
2025-12-06T12:59:58.673342,13,78,105228.0,100059.0,68.0,99.0
2025-12-06T12:59:58.704944,13,79,105228.0,100059.0,68.0,99.0
2025-12-06T12:59:58.752370,13,80,103229.0,99230.0,68.0,99.0
2025-12-06T12:59:58.783984,13,81,103229.0,99230.0,68.0,99.0
2025-12-06T12:59:58.830883,13,82,103229.0,99230.0,68.0,99.0
2025-12-06T12:59:58.862118,13,83,103229.0,99230.0,68.0,99.0
2025-12-06T12:59:58.908622,13,84,104046.0,99566.0,68.0,99.0
2025-12-06T12:59:58.940231,13,85,104046.0,99566.0,68.0,99.0
2025-12-06T12:59:58.982190,13,86,104046.0,99566.0,68.0,99.0
2025-12-06T12:59:59.029089,13,87,104046.0,99566.0,68.0,99.0
2025-12-06T12:59:59.060330,13,88,104346.0,99698.0,68.0,99.0
2025-12-06T12:59:59.107611,13,89,104346.0,99698.0,68.0,99.0
2025-12-06T12:59:59.139126,13,90,104346.0,99698.0,68.0,99.0
2025-12-06T12:59:59.190801,13,91,104346.0,99698.0,68.0,99.0
2025-12-06T12:59:59.230458,13,92,104980.0,99950.0,68.0,99.0
2025-12-06T12:59:59.262179,13,93,104980.0,99950.0,68.0,99.0
2025-12-06T12:59:59.309117,13,94,104980.0,99950.0,68.0,99.0
2025-12-06T12:59:59.341141,13,95,104980.0,99950.0,68.0,99.0
2025-12-06T12:59:59.389504,13,96,105438.0,100148.0,68.0,99.0
2025-12-06T12:59:59.421418,13,97,105438.0,100148.0,68.0,99.0
2025-12-06T12:59:59.468292,13,98,105438.0,100148.0,68.0,99.0
2025-12-06T12:59:59.508071,13,99,105438.0,100148.0,68.0,99.0
2025-12-06T12:59:59.539975,13,100,103363.0,99276.0,68.0,99.0
2025-12-06T12:59:59.587149,13,101,103363.0,99276.0,68.0,99.0
2025-12-06T12:59:59.620197,13,102,103363.0,99276.0,68.0,99.0
2025-12-06T13:00:02.827148,14,0,103363.0,99276.0,72.0,99.0
2025-12-06T13:00:02.827148,14,1,104108.0,99576.0,72.0,99.0
2025-12-06T13:00:02.827148,14,2,104108.0,99576.0,72.0,99.0
2025-12-06T13:00:02.830178,14,3,104108.0,99576.0,72.0,99.0
2025-12-06T13:00:02.830178,14,4,104108.0,99576.0,72.0,99.0
2025-12-06T13:00:02.830178,14,5,104358.0,99668.0,72.0,99.0
2025-12-06T13:00:02.830178,14,6,104358.0,99668.0,72.0,99.0
2025-12-06T13:00:02.830178,14,7,104358.0,99668.0,72.0,99.0
2025-12-06T13:00:02.830178,14,8,104358.0,99668.0,72.0,99.0
2025-12-06T13:00:02.830178,14,9,105020.0,99961.0,72.0,99.0
2025-12-06T13:00:02.830178,14,10,105020.0,99961.0,72.0,99.0
2025-12-06T13:00:02.830178,14,11,105020.0,99961.0,72.0,99.0
2025-12-06T13:00:02.830178,14,12,105020.0,99961.0,72.0,99.0
2025-12-06T13:00:02.830178,14,13,105477.0,100134.0,72.0,99.0
2025-12-06T13:00:02.830178,14,14,105477.0,100134.0,72.0,99.0
2025-12-06T13:00:02.830178,14,15,105477.0,100134.0,72.0,99.0
2025-12-06T13:00:02.830178,14,16,105477.0,100134.0,72.0,99.0
2025-12-06T13:00:02.830178,14,17,103710.0,99414.0,72.0,99.0
2025-12-06T13:00:02.840442,14,18,103710.0,99414.0,72.0,99.0
2025-12-06T13:00:02.841425,14,19,103710.0,99414.0,72.0,99.0
2025-12-06T13:00:02.841477,14,20,103710.0,99414.0,72.0,99.0
2025-12-06T13:00:02.841477,14,21,103372.0,99235.0,72.0,99.0
2025-12-06T13:00:02.843121,14,22,103372.0,99235.0,72.0,99.0
2025-12-06T13:00:02.843459,14,23,103372.0,99235.0,72.0,99.0
2025-12-06T13:00:02.844387,14,24,103372.0,99235.0,72.0,99.0
2025-12-06T13:00:02.844387,14,25,103728.0,99380.0,72.0,99.0
2025-12-06T13:00:02.844387,14,26,103728.0,99380.0,72.0,99.0
2025-12-06T13:00:02.844387,14,27,103728.0,99380.0,72.0,99.0
2025-12-06T13:00:02.846974,14,28,103728.0,99380.0,72.0,99.0
2025-12-06T13:00:02.848455,14,29,104492.0,99698.0,72.0,99.0
2025-12-06T13:00:02.848455,14,30,104492.0,99698.0,72.0,99.0
2025-12-06T13:00:02.850803,14,31,104492.0,99698.0,72.0,99.0
2025-12-06T13:00:02.851612,14,32,104492.0,99698.0,72.0,99.0
2025-12-06T13:00:02.853351,14,33,104999.0,99915.0,72.0,99.0
2025-12-06T13:00:02.854401,14,34,104999.0,99915.0,72.0,99.0
2025-12-06T13:00:02.854401,14,35,104999.0,99915.0,72.0,99.0
2025-12-06T13:00:02.854401,14,36,104999.0,99915.0,72.0,99.0
2025-12-06T13:00:02.854401,14,37,105600.0,100174.0,72.0,99.0
2025-12-06T13:00:02.856719,14,38,105600.0,100174.0,72.0,99.0
2025-12-06T13:00:02.856719,14,39,105600.0,100174.0,72.0,99.0
2025-12-06T13:00:02.858940,14,40,105600.0,100174.0,72.0,99.0
2025-12-06T13:00:02.859816,14,41,102850.0,98982.0,72.0,99.0
2025-12-06T13:00:02.859816,14,42,102850.0,98982.0,72.0,99.0
2025-12-06T13:00:02.859816,14,43,102850.0,98982.0,72.0,99.0
2025-12-06T13:00:02.859816,14,44,102850.0,98982.0,72.0,99.0
2025-12-06T13:00:02.859816,14,45,103373.0,99197.0,72.0,99.0
2025-12-06T13:00:02.859816,14,46,103373.0,99197.0,72.0,99.0
2025-12-06T13:00:02.859816,14,47,103373.0,99197.0,72.0,99.0
2025-12-06T13:00:02.859816,14,48,103373.0,99197.0,72.0,99.0
2025-12-06T13:00:02.859816,14,49,103765.0,99368.0,72.0,99.0
2025-12-06T13:00:02.859816,14,50,103765.0,99368.0,72.0,99.0
2025-12-06T13:00:02.859816,14,51,103765.0,99368.0,72.0,99.0
2025-12-06T13:00:02.859816,14,52,103765.0,99368.0,72.0,99.0
2025-12-06T13:00:02.859816,14,53,104583.0,99728.0,72.0,99.0
2025-12-06T13:00:02.859816,14,54,104583.0,99728.0,72.0,99.0
2025-12-06T13:00:02.859816,14,55,104583.0,99728.0,72.0,99.0
2025-12-06T13:00:02.859816,14,56,104583.0,99728.0,72.0,99.0
2025-12-06T13:00:02.859816,14,57,105153.0,99956.0,72.0,99.0
2025-12-06T13:00:02.859816,14,58,105153.0,99956.0,72.0,99.0
2025-12-06T13:00:02.867980,14,59,105153.0,99956.0,72.0,99.0
2025-12-06T13:00:02.867980,14,60,105153.0,99956.0,72.0,99.0
2025-12-06T13:00:02.867980,14,61,105799.0,100233.0,72.0,99.0
2025-12-06T13:00:02.867980,14,62,105799.0,100233.0,72.0,99.0
2025-12-06T13:00:02.867980,14,63,105799.0,100233.0,72.0,99.0
2025-12-06T13:00:02.867980,14,64,105799.0,100233.0,72.0,99.0
2025-12-06T13:00:02.867980,14,65,103080.0,99083.0,72.0,99.0
2025-12-06T13:00:02.867980,14,66,103080.0,99083.0,72.0,99.0
2025-12-06T13:00:02.867980,14,67,103080.0,99083.0,72.0,99.0
2025-12-06T13:00:02.867980,14,68,103080.0,99083.0,72.0,99.0
2025-12-06T13:00:02.867980,14,69,103698.0,99326.0,72.0,99.0
2025-12-06T13:00:02.867980,14,70,103698.0,99326.0,72.0,99.0
2025-12-06T13:00:02.867980,14,71,103698.0,99326.0,72.0,99.0
2025-12-06T13:00:02.867980,14,72,103698.0,99326.0,72.0,99.0
2025-12-06T13:00:02.874440,14,73,104138.0,99518.0,72.0,99.0
2025-12-06T13:00:02.874440,14,74,104138.0,99518.0,72.0,99.0
2025-12-06T13:00:02.874440,14,75,104138.0,99518.0,72.0,99.0
2025-12-06T13:00:02.874440,14,76,104138.0,99518.0,72.0,99.0
2025-12-06T13:00:02.874440,14,77,104969.0,99865.0,72.0,99.0
2025-12-06T13:00:02.874440,14,78,104969.0,99865.0,72.0,99.0
2025-12-06T13:00:02.874440,14,79,104969.0,99865.0,72.0,99.0
2025-12-06T13:00:02.874440,14,80,104969.0,99865.0,72.0,99.0
2025-12-06T13:00:02.893286,14,81,105635.0,100134.0,72.0,99.0
2025-12-06T13:00:02.934514,14,82,105635.0,100134.0,72.0,99.0
2025-12-06T13:00:02.973956,14,83,105635.0,100134.0,72.0,99.0
2025-12-06T13:00:03.005343,14,84,105635.0,100134.0,72.0,99.0
2025-12-06T13:00:03.056164,14,85,105995.0,100303.0,72.0,99.0
2025-12-06T13:00:03.087731,14,86,105995.0,100303.0,72.0,99.0
2025-12-06T13:00:03.134672,14,87,105995.0,100303.0,72.0,99.0
2025-12-06T13:00:03.167106,14,88,105995.0,100303.0,72.0,99.0
2025-12-06T13:00:03.208029,14,89,103804.0,99362.0,72.0,99.0
2025-12-06T13:00:03.256489,14,90,103804.0,99362.0,72.0,99.0
2025-12-06T13:00:03.291559,14,91,103804.0,99362.0,72.0,99.0
2025-12-06T13:00:03.323282,14,92,103804.0,99362.0,72.0,99.0
2025-12-06T13:00:03.370150,14,93,104227.0,99543.0,72.0,99.0
2025-12-06T13:00:03.401448,14,94,104227.0,99543.0,72.0,99.0
2025-12-06T13:00:03.448282,14,95,104227.0,99543.0,72.0,99.0
2025-12-06T13:00:03.480479,14,96,104227.0,99543.0,72.0,99.0
2025-12-06T13:00:03.527356,14,97,104681.0,99751.0,72.0,99.0
2025-12-06T13:00:03.567652,14,98,104681.0,99751.0,72.0,99.0
2025-12-06T13:00:03.615113,14,99,104681.0,99751.0,72.0,99.0
2025-12-06T13:00:03.647639,14,100,104681.0,99751.0,72.0,99.0
2025-12-06T13:00:03.679846,14,101,105272.0,100010.0,72.0,99.0
2025-12-06T13:00:03.733525,14,102,105272.0,100010.0,72.0,99.0
2025-12-06T13:00:03.772765,14,103,105272.0,100010.0,72.0,99.0
2025-12-06T13:00:03.808708,14,104,105272.0,100010.0,72.0,99.0
2025-12-06T13:00:03.840014,14,105,105772.0,100205.0,72.0,99.0
2025-12-06T13:00:03.887344,14,106,105772.0,100205.0,72.0,99.0
2025-12-06T13:00:03.918926,14,107,105772.0,100205.0,72.0,99.0
2025-12-06T13:00:03.966713,14,108,105772.0,100205.0,72.0,99.0
2025-12-06T13:00:04.013528,14,109,103051.0,99059.0,72.0,99.0
2025-12-06T13:00:04.052397,14,110,103051.0,99059.0,72.0,99.0
2025-12-06T13:00:04.092141,14,111,103051.0,99059.0,72.0,99.0
2025-12-06T13:00:04.123470,14,112,103051.0,99059.0,72.0,99.0
2025-12-06T13:00:04.171577,14,113,103843.0,99401.0,72.0,99.0
2025-12-06T13:00:04.202875,14,114,103843.0,99401.0,72.0,99.0
2025-12-06T13:00:04.251754,14,115,103843.0,99401.0,72.0,99.0
2025-12-06T13:00:04.278239,14,116,103843.0,99401.0,72.0,99.0
2025-12-06T13:00:04.317860,14,117,104045.0,99510.0,72.0,99.0
2025-12-06T13:00:04.371133,14,118,104045.0,99510.0,72.0,99.0
2025-12-06T13:00:04.400932,14,119,104045.0,99510.0,72.0,99.0
2025-12-06T13:00:04.451459,14,120,104045.0,99510.0,72.0,99.0
2025-12-06T13:00:04.488847,14,121,104655.0,99773.0,72.0,99.0
2025-12-06T13:00:04.531197,14,122,104655.0,99773.0,72.0,99.0
2025-12-06T13:00:04.570615,14,123,104655.0,99773.0,72.0,99.0
2025-12-06T13:00:04.604329,14,124,104655.0,99773.0,72.0,99.0
2025-12-06T13:00:04.642117,14,125,105096.0,99978.0,72.0,99.0
2025-12-06T13:00:04.689235,14,126,105096.0,99978.0,72.0,99.0
2025-12-06T13:00:04.720503,14,127,105096.0,99978.0,72.0,99.0
2025-12-06T13:00:04.770268,14,128,105096.0,99978.0,72.0,99.0
2025-12-06T13:00:04.807725,14,129,104538.0,99759.0,72.0,99.0
2025-12-06T13:00:04.839490,14,130,104538.0,99759.0,72.0,99.0
2025-12-06T13:00:07.515498,15,0,104538.0,99759.0,71.0,98.0
2025-12-06T13:00:07.515498,15,1,104538.0,99759.0,71.0,98.0
2025-12-06T13:00:07.515498,15,2,102791.0,99031.0,71.0,98.0
2025-12-06T13:00:07.517894,15,3,102791.0,99031.0,71.0,98.0
2025-12-06T13:00:07.517894,15,4,102791.0,99031.0,71.0,98.0
2025-12-06T13:00:07.517894,15,5,102791.0,99031.0,71.0,98.0
2025-12-06T13:00:07.517894,15,6,103148.0,99196.0,71.0,98.0
